# == pyFAI calibration ==
# Distance Sample to Detector: 0.10401047200818728 m
# PONI: 2.723e-01, 1.277e-01 m
# Rotations: -0.007054 -0.003206 0.000160 rad
# 
# == Fit2d calibration ==
# Distance Sample-beamCenter: 104.014 mm
# Center: x=746.682, y=1580.912 pix
# Tilt: 0.444 deg  TiltPlanRot: -24.440 deg
# 
# Detector Pilatus CdTe 2M	 PixelSize= 1.720e-04, 1.720e-04 m
#    Detector has a mask: True 
#    Detector has a dark current: False 
#    detector has a flat field: False 
# 
# Wavelength: 3.5410000000000004e-11 m
# Mask applied: from detector
# Dark current applied: False
# Flat field applied: False
# Polarization factor: 0.99
# Normalization factor: 1.0
# --> C:/Users/au714043/OneDrive - Aarhus Universitet/Desktop/pyfai_notebook/npy/scan-0921_avg.dat
#        q_A^-1             I 
  5.250000e-03             nan
  1.575000e-02             nan
  2.625000e-02             nan
  3.675000e-02             nan
  4.725000e-02             nan
  5.775000e-02             nan
  6.825000e-02             nan
  7.875000e-02             nan
  8.925000e-02             nan
  9.975000e-02             nan
  1.102500e-01             nan
  1.207500e-01             nan
  1.312500e-01             nan
  1.417500e-01             nan
  1.522500e-01             nan
  1.627500e-01             nan
  1.732500e-01             nan
  1.837500e-01             nan
  1.942500e-01             nan
  2.047500e-01             nan
  2.152500e-01             nan
  2.257500e-01             nan
  2.362500e-01             nan
  2.467500e-01             nan
  2.572500e-01             nan
  2.677500e-01             nan
  2.782500e-01             nan
  2.887500e-01             nan
  2.992500e-01             nan
  3.097500e-01             nan
  3.202500e-01             nan
  3.307500e-01             nan
  3.412500e-01             nan
  3.517500e-01             nan
  3.622500e-01             nan
  3.727500e-01             nan
  3.832500e-01             nan
  3.937500e-01             nan
  4.042500e-01             nan
  4.147500e-01             nan
  4.252500e-01             nan
  4.357500e-01             nan
  4.462500e-01             nan
  4.567500e-01             nan
  4.672500e-01             nan
  4.777500e-01             nan
  4.882500e-01             nan
  4.987500e-01             nan
  5.092500e-01             nan
  5.197500e-01             nan
  5.302500e-01             nan
  5.407500e-01             nan
  5.512500e-01             nan
  5.617500e-01             nan
  5.722500e-01             nan
  5.827500e-01             nan
  5.932500e-01             nan
  6.037500e-01             nan
  6.142500e-01             nan
  6.247500e-01             nan
  6.352500e-01             nan
  6.457500e-01             nan
  6.562500e-01             nan
  6.667500e-01             nan
  6.772500e-01             nan
  6.877500e-01             nan
  6.982500e-01             nan
  7.087500e-01             nan
  7.192500e-01             nan
  7.297500e-01             nan
  7.402500e-01             nan
  7.507500e-01             nan
  7.612500e-01             nan
  7.717500e-01             nan
  7.822500e-01             nan
  7.927500e-01             nan
  8.032500e-01             nan
  8.137500e-01             nan
  8.242500e-01             nan
  8.347500e-01             nan
  8.452500e-01             nan
  8.557500e-01             nan
  8.662500e-01             nan
  8.767500e-01             nan
  8.872500e-01             nan
  8.977500e-01             nan
  9.082500e-01             nan
  9.187500e-01             nan
  9.292500e-01             nan
  9.397500e-01             nan
  9.502500e-01             nan
  9.607500e-01             nan
  9.712500e-01             nan
  9.817500e-01             nan
  9.922500e-01             nan
  1.002750e+00             nan
  1.013250e+00             nan
  1.023750e+00             nan
  1.034250e+00             nan
  1.044750e+00             nan
  1.055250e+00             nan
  1.065750e+00             nan
  1.076250e+00    4.883852e+03
  1.086750e+00    4.971086e+03
  1.097250e+00    5.039722e+03
  1.107750e+00    5.216230e+03
  1.118250e+00    5.292349e+03
  1.128750e+00    5.331272e+03
  1.139250e+00    5.353249e+03
  1.149750e+00    5.376652e+03
  1.160250e+00    5.439406e+03
  1.170750e+00    5.448778e+03
  1.181250e+00    5.461260e+03
  1.191750e+00    5.569188e+03
  1.202250e+00    5.583414e+03
  1.212750e+00    5.601831e+03
  1.223250e+00    5.689289e+03
  1.233750e+00    5.644610e+03
  1.244250e+00    5.744349e+03
  1.254750e+00    5.719735e+03
  1.265250e+00    5.692586e+03
  1.275750e+00    5.743640e+03
  1.286250e+00    5.748157e+03
  1.296750e+00    5.768183e+03
  1.307250e+00    5.798798e+03
  1.317750e+00    5.780013e+03
  1.328250e+00    5.743459e+03
  1.338750e+00    5.775443e+03
  1.349250e+00    5.801764e+03
  1.359750e+00    5.790459e+03
  1.370250e+00    5.992371e+03
  1.380750e+00    6.205890e+03
  1.391250e+00    7.152763e+03
  1.401750e+00    9.369443e+03
  1.412250e+00    1.393096e+04
  1.422750e+00    1.722339e+04
  1.433250e+00    2.550400e+04
  1.443750e+00    3.165673e+04
  1.454250e+00    3.955055e+04
  1.464750e+00    4.304379e+04
  1.475250e+00    4.833933e+04
  1.485750e+00    5.144012e+04
  1.496250e+00    5.421901e+04
  1.506750e+00    5.332271e+04
  1.517250e+00    5.141260e+04
  1.527750e+00    5.161333e+04
  1.538250e+00    5.014491e+04
  1.548750e+00    4.646649e+04
  1.559250e+00    4.075351e+04
  1.569750e+00    3.659737e+04
  1.580250e+00    2.969160e+04
  1.590750e+00    2.079315e+04
  1.601250e+00    1.479702e+04
  1.611750e+00    1.085190e+04
  1.622250e+00    7.075235e+03
  1.632750e+00    5.703159e+03
  1.643250e+00    5.063382e+03
  1.653750e+00    4.813380e+03
  1.664250e+00    4.652021e+03
  1.674750e+00    4.568574e+03
  1.685250e+00    4.562332e+03
  1.695750e+00    4.498594e+03
  1.706250e+00    4.479941e+03
  1.716750e+00    4.504098e+03
  1.727250e+00    4.438114e+03
  1.737750e+00    4.458584e+03
  1.748250e+00    4.447096e+03
  1.758750e+00    4.411886e+03
  1.769250e+00    4.437444e+03
  1.779750e+00    4.422277e+03
  1.790250e+00    4.404160e+03
  1.800750e+00    4.427174e+03
  1.811250e+00    4.368380e+03
  1.821750e+00    4.390860e+03
  1.832250e+00    4.369080e+03
  1.842750e+00    4.367343e+03
  1.853250e+00    4.346246e+03
  1.863750e+00    4.328187e+03
  1.874250e+00    4.266453e+03
  1.884750e+00    4.287704e+03
  1.895250e+00    4.232127e+03
  1.905750e+00    4.208033e+03
  1.916250e+00    4.173167e+03
  1.926750e+00    4.124775e+03
  1.937250e+00    4.077907e+03
  1.947750e+00    4.071535e+03
  1.958250e+00    4.057780e+03
  1.968750e+00    4.041700e+03
  1.979250e+00    4.068078e+03
  1.989750e+00    4.158435e+03
  2.000250e+00    4.434727e+03
  2.010750e+00    5.416638e+03
  2.021250e+00    7.827838e+03
  2.031750e+00    1.060655e+04
  2.042250e+00    1.832757e+04
  2.052750e+00    2.943582e+04
  2.063250e+00    3.769786e+04
  2.073750e+00    5.006675e+04
  2.084250e+00    6.314740e+04
  2.094750e+00    7.511495e+04
  2.105250e+00    8.118531e+04
  2.115750e+00    8.648963e+04
  2.126250e+00    8.688544e+04
  2.136750e+00    9.036458e+04
  2.147250e+00    8.481378e+04
  2.157750e+00    8.703543e+04
  2.168250e+00    7.653022e+04
  2.178750e+00    7.207441e+04
  2.189250e+00    6.325572e+04
  2.199750e+00    5.274821e+04
  2.210250e+00    4.253261e+04
  2.220750e+00    3.075410e+04
  2.231250e+00    1.782504e+04
  2.241750e+00    1.147943e+04
  2.252250e+00    6.519791e+03
  2.262750e+00    4.459365e+03
  2.273250e+00    3.591290e+03
  2.283750e+00    3.283913e+03
  2.294250e+00    3.125703e+03
  2.304750e+00    3.041677e+03
  2.315250e+00    2.970953e+03
  2.325750e+00    2.947881e+03
  2.336250e+00    2.908499e+03
  2.346750e+00    2.891066e+03
  2.357250e+00    2.873888e+03
  2.367750e+00    2.851441e+03
  2.378250e+00    2.840976e+03
  2.388750e+00    2.840285e+03
  2.399250e+00    2.800494e+03
  2.409750e+00    2.812782e+03
  2.420250e+00    2.805656e+03
  2.430750e+00    2.798901e+03
  2.441250e+00    2.796923e+03
  2.451750e+00    2.817011e+03
  2.462250e+00    2.847722e+03
  2.472750e+00    2.935010e+03
  2.483250e+00    3.089276e+03
  2.493750e+00    3.541744e+03
  2.504250e+00    4.802750e+03
  2.514750e+00    6.567274e+03
  2.525250e+00    9.591211e+03
  2.535750e+00    1.479466e+04
  2.546250e+00    2.120549e+04
  2.556750e+00    2.429780e+04
  2.567250e+00    2.896660e+04
  2.577750e+00    3.546111e+04
  2.588250e+00    3.691159e+04
  2.598750e+00    3.923255e+04
  2.609250e+00    4.115673e+04
  2.619750e+00    4.218419e+04
  2.630250e+00    4.014399e+04
  2.640750e+00    4.078802e+04
  2.651250e+00    3.699777e+04
  2.661750e+00    3.296480e+04
  2.672250e+00    2.911884e+04
  2.682750e+00    2.380395e+04
  2.693250e+00    1.922268e+04
  2.703750e+00    1.461081e+04
  2.714250e+00    8.863068e+03
  2.724750e+00    5.557512e+03
  2.735250e+00    4.051966e+03
  2.745750e+00    3.150813e+03
  2.756250e+00    2.862128e+03
  2.766750e+00    2.753441e+03
  2.777250e+00    2.700591e+03
  2.787750e+00    2.664532e+03
  2.798250e+00    2.650172e+03
  2.808750e+00    2.633736e+03
  2.819250e+00    2.637447e+03
  2.829750e+00    2.631601e+03
  2.840250e+00    2.634686e+03
  2.850750e+00    2.642436e+03
  2.861250e+00    2.645701e+03
  2.871750e+00    2.679115e+03
  2.882250e+00    2.792790e+03
  2.892750e+00    2.860165e+03
  2.903250e+00    3.389304e+03
  2.913750e+00    4.306018e+03
  2.924250e+00    6.057580e+03
  2.934750e+00    7.959200e+03
  2.945250e+00    9.789148e+03
  2.955750e+00    1.326039e+04
  2.966250e+00    1.694316e+04
  2.976750e+00    1.656065e+04
  2.987250e+00    1.875266e+04
  2.997750e+00    2.043484e+04
  3.008250e+00    2.171249e+04
  3.018750e+00    2.344254e+04
  3.029250e+00    2.560221e+04
  3.039750e+00    2.255175e+04
  3.050250e+00    2.076055e+04
  3.060750e+00    2.031046e+04
  3.071250e+00    1.774088e+04
  3.081750e+00    1.510720e+04
  3.092250e+00    1.266068e+04
  3.102750e+00    1.007839e+04
  3.113250e+00    7.972737e+03
  3.123750e+00    5.238346e+03
  3.134250e+00    4.270548e+03
  3.144750e+00    3.216705e+03
  3.155250e+00    2.887443e+03
  3.165750e+00    2.731933e+03
  3.176250e+00    2.683687e+03
  3.186750e+00    2.660699e+03
  3.197250e+00    2.663151e+03
  3.207750e+00    2.662869e+03
  3.218250e+00    2.685166e+03
  3.228750e+00    2.744912e+03
  3.239250e+00    2.891176e+03
  3.249750e+00    3.294201e+03
  3.260250e+00    4.427854e+03
  3.270750e+00    6.259830e+03
  3.281250e+00    9.868441e+03
  3.291750e+00    1.411135e+04
  3.302250e+00    2.049512e+04
  3.312750e+00    2.548652e+04
  3.323250e+00    3.200197e+04
  3.333750e+00    3.584150e+04
  3.344250e+00    3.952906e+04
  3.354750e+00    4.311387e+04
  3.365250e+00    4.498149e+04
  3.375750e+00    4.597249e+04
  3.386250e+00    4.456728e+04
  3.396750e+00    4.509455e+04
  3.407250e+00    4.146822e+04
  3.417750e+00    3.952080e+04
  3.428250e+00    3.564410e+04
  3.438750e+00    2.998835e+04
  3.449250e+00    2.505497e+04
  3.459750e+00    1.899472e+04
  3.470250e+00    1.296418e+04
  3.480750e+00    8.490048e+03
  3.491250e+00    5.488872e+03
  3.501750e+00    3.700490e+03
  3.512250e+00    2.939984e+03
  3.522750e+00    2.581630e+03
  3.533250e+00    2.461257e+03
  3.543750e+00    2.424126e+03
  3.554250e+00    2.439184e+03
  3.564750e+00    2.513187e+03
  3.575250e+00    2.840231e+03
  3.585750e+00    3.538266e+03
  3.596250e+00    4.439587e+03
  3.606750e+00    6.626176e+03
  3.617250e+00    8.697510e+03
  3.627750e+00    1.224469e+04
  3.638250e+00    1.472559e+04
  3.648750e+00    1.879288e+04
  3.659250e+00    1.996854e+04
  3.669750e+00    2.239081e+04
  3.680250e+00    2.412943e+04
  3.690750e+00    2.401132e+04
  3.701250e+00    2.507795e+04
  3.711750e+00    2.459357e+04
  3.722250e+00    2.437603e+04
  3.732750e+00    2.264523e+04
  3.743250e+00    2.083784e+04
  3.753750e+00    1.855506e+04
  3.764250e+00    1.550413e+04
  3.774750e+00    1.286263e+04
  3.785250e+00    8.579915e+03
  3.795750e+00    6.015438e+03
  3.806250e+00    4.555674e+03
  3.816750e+00    3.472827e+03
  3.827250e+00    2.619569e+03
  3.837750e+00    2.371967e+03
  3.848250e+00    2.263464e+03
  3.858750e+00    2.227983e+03
  3.869250e+00    2.190771e+03
  3.879750e+00    2.173101e+03
  3.890250e+00    2.165174e+03
  3.900750e+00    2.159393e+03
  3.911250e+00    2.147373e+03
  3.921750e+00    2.152821e+03
  3.932250e+00    2.138029e+03
  3.942750e+00    2.139772e+03
  3.953250e+00    2.133483e+03
  3.963750e+00    2.128368e+03
  3.974250e+00    2.139875e+03
  3.984750e+00    2.122333e+03
  3.995250e+00    2.133345e+03
  4.005750e+00    2.129043e+03
  4.016250e+00    2.124054e+03
  4.026750e+00    2.123996e+03
  4.037250e+00    2.122922e+03
  4.047750e+00    2.119080e+03
  4.058250e+00    2.127449e+03
  4.068750e+00    2.116859e+03
  4.079250e+00    2.115336e+03
  4.089750e+00    2.119626e+03
  4.100250e+00    2.128663e+03
  4.110750e+00    2.130489e+03
  4.121250e+00    2.137428e+03
  4.131750e+00    2.164896e+03
  4.142250e+00    2.241304e+03
  4.152750e+00    2.402253e+03
  4.163250e+00    2.783761e+03
  4.173750e+00    3.484360e+03
  4.184250e+00    4.287938e+03
  4.194750e+00    5.429085e+03
  4.205250e+00    6.681530e+03
  4.215750e+00    8.227869e+03
  4.226250e+00    8.861375e+03
  4.236750e+00    9.242211e+03
  4.247250e+00    1.037795e+04
  4.257750e+00    1.147159e+04
  4.268250e+00    1.079996e+04
  4.278750e+00    1.121894e+04
  4.289250e+00    1.085407e+04
  4.299750e+00    1.040277e+04
  4.310250e+00    1.004420e+04
  4.320750e+00    9.270525e+03
  4.331250e+00    7.788871e+03
  4.341750e+00    6.579067e+03
  4.352250e+00    5.418609e+03
  4.362750e+00    4.163901e+03
  4.373250e+00    3.426004e+03
  4.383750e+00    2.959235e+03
  4.394250e+00    2.628569e+03
  4.404750e+00    2.801431e+03
  4.415250e+00    3.395666e+03
  4.425750e+00    4.418323e+03
  4.436250e+00    6.172757e+03
  4.446750e+00    8.647487e+03
  4.457250e+00    1.233197e+04
  4.467750e+00    1.589782e+04
  4.478250e+00    1.996430e+04
  4.488750e+00    2.277241e+04
  4.499250e+00    2.560667e+04
  4.509750e+00    2.690081e+04
  4.520250e+00    2.932234e+04
  4.530750e+00    2.866963e+04
  4.541250e+00    2.755340e+04
  4.551750e+00    2.736169e+04
  4.562250e+00    2.657897e+04
  4.572750e+00    2.507909e+04
  4.583250e+00    2.238531e+04
  4.593750e+00    1.813729e+04
  4.604250e+00    1.360126e+04
  4.614750e+00    1.001098e+04
  4.625250e+00    7.194820e+03
  4.635750e+00    5.346355e+03
  4.646250e+00    4.336483e+03
  4.656750e+00    3.590454e+03
  4.667250e+00    3.690229e+03
  4.677750e+00    4.749160e+03
  4.688250e+00    5.807776e+03
  4.698750e+00    8.299162e+03
  4.709250e+00    1.113853e+04
  4.719750e+00    1.388340e+04
  4.730250e+00    1.585179e+04
  4.740750e+00    1.874259e+04
  4.751250e+00    2.044512e+04
  4.761750e+00    2.047213e+04
  4.772250e+00    2.034257e+04
  4.782750e+00    1.989313e+04
  4.793250e+00    2.114099e+04
  4.803750e+00    1.890314e+04
  4.814250e+00    1.842883e+04
  4.824750e+00    1.672520e+04
  4.835250e+00    1.422105e+04
  4.845750e+00    1.160612e+04
  4.856250e+00    8.614093e+03
  4.866750e+00    6.283734e+03
  4.877250e+00    4.921428e+03
  4.887750e+00    3.997029e+03
  4.898250e+00    3.701162e+03
  4.908750e+00    3.734281e+03
  4.919250e+00    4.255828e+03
  4.929750e+00    5.537049e+03
  4.940250e+00    7.177860e+03
  4.950750e+00    8.657401e+03
  4.961250e+00    1.014832e+04
  4.971750e+00    1.189292e+04
  4.982250e+00    1.266277e+04
  4.992750e+00    1.390215e+04
  5.003250e+00    1.371016e+04
  5.013750e+00    1.380428e+04
  5.024250e+00    1.346440e+04
  5.034750e+00    1.321427e+04
  5.045250e+00    1.295108e+04
  5.055750e+00    1.165578e+04
  5.066250e+00    1.043723e+04
  5.076750e+00    8.340610e+03
  5.087250e+00    6.485906e+03
  5.097750e+00    4.976576e+03
  5.108250e+00    3.982249e+03
  5.118750e+00    3.314503e+03
  5.129250e+00    2.906414e+03
  5.139750e+00    2.719829e+03
  5.150250e+00    2.673918e+03
  5.160750e+00    2.934908e+03
  5.171250e+00    3.114070e+03
  5.181750e+00    3.406664e+03
  5.192250e+00    3.710197e+03
  5.202750e+00    3.860766e+03
  5.213250e+00    4.041670e+03
  5.223750e+00    4.233506e+03
  5.234250e+00    4.140854e+03
  5.244750e+00    4.100094e+03
  5.255250e+00    4.111115e+03
  5.265750e+00    3.941218e+03
  5.276250e+00    3.691901e+03
  5.286750e+00    3.534057e+03
  5.297250e+00    3.227565e+03
  5.307750e+00    2.918295e+03
  5.318250e+00    2.830678e+03
  5.328750e+00    2.750042e+03
  5.339250e+00    3.002866e+03
  5.349750e+00    3.156034e+03
  5.360250e+00    3.708610e+03
  5.370750e+00    4.579723e+03
  5.381250e+00    5.314237e+03
  5.391750e+00    6.895737e+03
  5.402250e+00    7.616202e+03
  5.412750e+00    8.143476e+03
  5.423250e+00    9.155612e+03
  5.433750e+00    9.194259e+03
  5.444250e+00    9.681026e+03
  5.454750e+00    9.259361e+03
  5.465250e+00    9.015372e+03
  5.475750e+00    8.351319e+03
  5.486250e+00    7.897312e+03
  5.496750e+00    7.271382e+03
  5.507250e+00    6.236452e+03
  5.517750e+00    5.236212e+03
  5.528250e+00    4.515817e+03
  5.538750e+00    4.275098e+03
  5.549250e+00    4.326141e+03
  5.559750e+00    5.018470e+03
  5.570250e+00    6.172155e+03
  5.580750e+00    7.821315e+03
  5.591250e+00    9.856461e+03
  5.601750e+00    1.239344e+04
  5.612250e+00    1.365037e+04
  5.622750e+00    1.525223e+04
  5.633250e+00    1.598563e+04
  5.643750e+00    1.632153e+04
  5.654250e+00    1.668233e+04
  5.664750e+00    1.663379e+04
  5.675250e+00    1.618862e+04
  5.685750e+00    1.549318e+04
  5.696250e+00    1.350540e+04
  5.706750e+00    1.215164e+04
  5.717250e+00    9.869591e+03
  5.727750e+00    6.964900e+03
  5.738250e+00    5.726399e+03
  5.748750e+00    4.341255e+03
  5.759250e+00    3.484467e+03
  5.769750e+00    2.984202e+03
  5.780250e+00    2.485335e+03
  5.790750e+00    2.283083e+03
  5.801250e+00    2.176078e+03
  5.811750e+00    2.137072e+03
  5.822250e+00    2.130904e+03
  5.832750e+00    2.127540e+03
  5.843250e+00    2.117526e+03
  5.853750e+00    2.117157e+03
  5.864250e+00    2.113679e+03
  5.874750e+00    2.106293e+03
  5.885250e+00    2.103907e+03
  5.895750e+00    2.106724e+03
  5.906250e+00    2.114261e+03
  5.916750e+00    2.148597e+03
  5.927250e+00    2.209720e+03
  5.937750e+00    2.351914e+03
  5.948250e+00    2.416768e+03
  5.958750e+00    2.743910e+03
  5.969250e+00    3.124519e+03
  5.979750e+00    3.111466e+03
  5.990250e+00    3.474148e+03
  6.000750e+00    3.825274e+03
  6.011250e+00    3.985021e+03
  6.021750e+00    4.219480e+03
  6.032250e+00    4.353398e+03
  6.042750e+00    4.477419e+03
  6.053250e+00    4.286234e+03
  6.063750e+00    4.457396e+03
  6.074250e+00    4.231997e+03
  6.084750e+00    3.955234e+03
  6.095250e+00    3.831809e+03
  6.105750e+00    3.595391e+03
  6.116250e+00    3.617796e+03
  6.126750e+00    3.922433e+03
  6.137250e+00    4.269479e+03
  6.147750e+00    5.336872e+03
  6.158250e+00    6.188502e+03
  6.168750e+00    7.928025e+03
  6.179250e+00    9.054511e+03
  6.189750e+00    1.036908e+04
  6.200250e+00    1.155398e+04
  6.210750e+00    1.214244e+04
  6.221250e+00    1.275446e+04
  6.231750e+00    1.275508e+04
  6.242250e+00    1.301322e+04
  6.252750e+00    1.252838e+04
  6.263250e+00    1.210292e+04
  6.273750e+00    1.030904e+04
  6.284250e+00    9.234591e+03
  6.294750e+00    7.582770e+03
  6.305250e+00    6.475285e+03
  6.315750e+00    5.738386e+03
  6.326250e+00    5.831208e+03
  6.336750e+00    5.902816e+03
  6.347250e+00    7.061524e+03
  6.357750e+00    7.663024e+03
  6.368250e+00    8.713676e+03
  6.378750e+00    9.601440e+03
  6.389250e+00    9.982200e+03
  6.399750e+00    1.047416e+04
  6.410250e+00    1.065677e+04
  6.420750e+00    1.067588e+04
  6.431250e+00    1.055290e+04
  6.441750e+00    9.953014e+03
  6.452250e+00    9.127396e+03
  6.462750e+00    7.822526e+03
  6.473250e+00    6.614798e+03
  6.483750e+00    5.505407e+03
  6.494250e+00    4.504249e+03
  6.504750e+00    4.119535e+03
  6.515250e+00    4.088825e+03
  6.525750e+00    4.112928e+03
  6.536250e+00    4.456317e+03
  6.546750e+00    4.518908e+03
  6.557250e+00    4.912259e+03
  6.567750e+00    5.212671e+03
  6.578250e+00    5.101227e+03
  6.588750e+00    5.274948e+03
  6.599250e+00    5.593911e+03
  6.609750e+00    5.045323e+03
  6.620250e+00    4.745806e+03
  6.630750e+00    4.451388e+03
  6.641250e+00    4.176560e+03
  6.651750e+00    3.793475e+03
  6.662250e+00    3.564004e+03
  6.672750e+00    3.530871e+03
  6.683250e+00    3.673969e+03
  6.693750e+00    4.311792e+03
  6.704250e+00    4.799177e+03
  6.714750e+00    5.279681e+03
  6.725250e+00    5.821015e+03
  6.735750e+00    6.060605e+03
  6.746250e+00    6.630385e+03
  6.756750e+00    6.333763e+03
  6.767250e+00    6.250137e+03
  6.777750e+00    6.478865e+03
  6.788250e+00    5.864690e+03
  6.798750e+00    5.642154e+03
  6.809250e+00    5.263172e+03
  6.819750e+00    4.897017e+03
  6.830250e+00    4.627924e+03
  6.840750e+00    4.853214e+03
  6.851250e+00    5.374265e+03
  6.861750e+00    6.501259e+03
  6.872250e+00    7.391674e+03
  6.882750e+00    8.340171e+03
  6.893250e+00    9.164436e+03
  6.903750e+00    1.031076e+04
  6.914250e+00    1.036001e+04
  6.924750e+00    1.081995e+04
  6.935250e+00    1.088410e+04
  6.945750e+00    1.005016e+04
  6.956250e+00    9.474058e+03
  6.966750e+00    8.988519e+03
  6.977250e+00    7.627806e+03
  6.987750e+00    6.486318e+03
  6.998250e+00    5.374484e+03
  7.008750e+00    4.751762e+03
  7.019250e+00    4.575847e+03
  7.029750e+00    4.708225e+03
  7.040250e+00    4.850539e+03
  7.050750e+00    5.268158e+03
  7.061250e+00    5.462011e+03
  7.071750e+00    5.626634e+03
  7.082250e+00    5.779437e+03
  7.092750e+00    6.019095e+03
  7.103250e+00    5.915369e+03
  7.113750e+00    5.465547e+03
  7.124250e+00    5.280873e+03
  7.134750e+00    4.747179e+03
  7.145250e+00    3.911163e+03
  7.155750e+00    3.177396e+03
  7.166250e+00    2.706149e+03
  7.176750e+00    2.397835e+03
  7.187250e+00    2.143304e+03
  7.197750e+00    2.068413e+03
  7.208250e+00    1.939069e+03
  7.218750e+00    1.898615e+03
  7.229250e+00    1.868780e+03
  7.239750e+00    1.855462e+03
  7.250250e+00    1.849814e+03
  7.260750e+00    1.853244e+03
  7.271250e+00    1.870208e+03
  7.281750e+00    1.906493e+03
  7.292250e+00    1.970692e+03
  7.302750e+00    2.045724e+03
  7.313250e+00    2.186118e+03
  7.323750e+00    2.384312e+03
  7.334250e+00    2.647585e+03
  7.344750e+00    2.812985e+03
  7.355250e+00    3.105820e+03
  7.365750e+00    3.379328e+03
  7.376250e+00    3.531829e+03
  7.386750e+00    3.759080e+03
  7.397250e+00    3.752025e+03
  7.407750e+00    3.840900e+03
  7.418250e+00    3.823875e+03
  7.428750e+00    3.671168e+03
  7.439250e+00    3.608948e+03
  7.449750e+00    3.345294e+03
  7.460250e+00    3.194484e+03
  7.470750e+00    2.956112e+03
  7.481250e+00    2.926891e+03
  7.491750e+00    3.096880e+03
  7.502250e+00    3.183348e+03
  7.512750e+00    3.375469e+03
  7.523250e+00    3.373135e+03
  7.533750e+00    3.628058e+03
  7.544250e+00    3.633933e+03
  7.554750e+00    3.732450e+03
  7.565250e+00    3.730609e+03
  7.575750e+00    3.816434e+03
  7.586250e+00    3.850606e+03
  7.596750e+00    3.927653e+03
  7.607250e+00    3.847343e+03
  7.617750e+00    4.082952e+03
  7.628250e+00    4.498289e+03
  7.638750e+00    5.206080e+03
  7.649250e+00    5.951417e+03
  7.659750e+00    6.885983e+03
  7.670250e+00    7.800269e+03
  7.680750e+00    8.425196e+03
  7.691250e+00    8.850688e+03
  7.701750e+00    9.447943e+03
  7.712250e+00    9.342626e+03
  7.722750e+00    9.248234e+03
  7.733250e+00    9.069163e+03
  7.743750e+00    8.184074e+03
  7.754250e+00    7.203939e+03
  7.764750e+00    6.306587e+03
  7.775250e+00    5.272312e+03
  7.785750e+00    5.091360e+03
  7.796250e+00    4.778952e+03
  7.806750e+00    4.864132e+03
  7.817250e+00    4.855493e+03
  7.827750e+00    4.961466e+03
  7.838250e+00    5.042307e+03
  7.848750e+00    5.014275e+03
  7.859250e+00    5.099523e+03
  7.869750e+00    4.943888e+03
  7.880250e+00    4.904802e+03
  7.890750e+00    4.471677e+03
  7.901250e+00    3.878604e+03
  7.911750e+00    3.366478e+03
  7.922250e+00    2.957094e+03
  7.932750e+00    2.521178e+03
  7.943250e+00    2.398982e+03
  7.953750e+00    2.181773e+03
  7.964250e+00    2.034999e+03
  7.974750e+00    1.942010e+03
  7.985250e+00    1.872218e+03
  7.995750e+00    1.838273e+03
  8.006250e+00    1.864852e+03
  8.016750e+00    1.935985e+03
  8.027250e+00    2.160978e+03
  8.037750e+00    2.314460e+03
  8.048250e+00    2.705158e+03
  8.058750e+00    3.111540e+03
  8.069250e+00    3.759635e+03
  8.079750e+00    4.406009e+03
  8.090250e+00    5.097814e+03
  8.100750e+00    5.783500e+03
  8.111250e+00    6.216874e+03
  8.121750e+00    6.847933e+03
  8.132250e+00    7.105829e+03
  8.142750e+00    6.906483e+03
  8.153250e+00    7.061998e+03
  8.163750e+00    6.720895e+03
  8.174250e+00    6.263856e+03
  8.184750e+00    5.533593e+03
  8.195250e+00    4.725614e+03
  8.205750e+00    4.249765e+03
  8.216250e+00    3.864243e+03
  8.226750e+00    3.869667e+03
  8.237250e+00    3.730902e+03
  8.247750e+00    3.787870e+03
  8.258250e+00    3.669067e+03
  8.268750e+00    3.644125e+03
  8.279250e+00    3.529213e+03
  8.289750e+00    3.452957e+03
  8.300250e+00    3.359539e+03
  8.310750e+00    3.164851e+03
  8.321250e+00    3.001518e+03
  8.331750e+00    2.699583e+03
  8.342250e+00    2.449573e+03
  8.352750e+00    2.235118e+03
  8.363250e+00    2.083045e+03
  8.373750e+00    1.990820e+03
  8.384250e+00    1.934615e+03
  8.394750e+00    1.833000e+03
  8.405250e+00    1.788279e+03
  8.415750e+00    1.743803e+03
  8.426250e+00    1.741679e+03
  8.436750e+00    1.770847e+03
  8.447250e+00    1.800635e+03
  8.457750e+00    1.887847e+03
  8.468250e+00    1.946799e+03
  8.478750e+00    2.019081e+03
  8.489250e+00    2.136279e+03
  8.499750e+00    2.237811e+03
  8.510250e+00    2.371858e+03
  8.520750e+00    2.400792e+03
  8.531250e+00    2.577472e+03
  8.541750e+00    2.619359e+03
  8.552250e+00    2.774617e+03
  8.562750e+00    2.865775e+03
  8.573250e+00    2.907666e+03
  8.583750e+00    2.956376e+03
  8.594250e+00    3.223983e+03
  8.604750e+00    3.265932e+03
  8.615250e+00    3.469924e+03
  8.625750e+00    3.692699e+03
  8.636250e+00    4.093841e+03
  8.646750e+00    4.330851e+03
  8.657250e+00    4.659712e+03
  8.667750e+00    4.882647e+03
  8.678250e+00    5.199484e+03
  8.688750e+00    5.195695e+03
  8.699250e+00    5.118822e+03
  8.709750e+00    4.998315e+03
  8.720250e+00    4.686091e+03
  8.730750e+00    4.650240e+03
  8.741250e+00    4.362491e+03
  8.751750e+00    4.312599e+03
  8.762250e+00    4.313733e+03
  8.772750e+00    4.445602e+03
  8.783250e+00    4.638657e+03
  8.793750e+00    4.834973e+03
  8.804250e+00    4.766176e+03
  8.814750e+00    4.926323e+03
  8.825250e+00    4.803333e+03
  8.835750e+00    4.799087e+03
  8.846250e+00    4.642651e+03
  8.856750e+00    4.336204e+03
  8.867250e+00    4.128235e+03
  8.877750e+00    3.925077e+03
  8.888250e+00    3.916041e+03
  8.898750e+00    4.078396e+03
  8.909250e+00    4.093415e+03
  8.919750e+00    4.141733e+03
  8.930250e+00    4.202287e+03
  8.940750e+00    4.213217e+03
  8.951250e+00    4.182758e+03
  8.961750e+00    3.961180e+03
  8.972250e+00    3.893461e+03
  8.982750e+00    3.678496e+03
  8.993250e+00    3.353872e+03
  9.003750e+00    3.187293e+03
  9.014250e+00    3.097030e+03
  9.024750e+00    3.053139e+03
  9.035250e+00    3.025920e+03
  9.045750e+00    3.103846e+03
  9.056250e+00    3.062380e+03
  9.066750e+00    3.098695e+03
  9.077250e+00    3.090116e+03
  9.087750e+00    3.003826e+03
  9.098250e+00    2.944385e+03
  9.108750e+00    2.742450e+03
  9.119250e+00    2.566945e+03
  9.129750e+00    2.499802e+03
  9.140250e+00    2.412833e+03
  9.150750e+00    2.389340e+03
  9.161250e+00    2.385165e+03
  9.171750e+00    2.383739e+03
  9.182250e+00    2.433101e+03
  9.192750e+00    2.504044e+03
  9.203250e+00    2.522312e+03
  9.213750e+00    2.531245e+03
  9.224250e+00    2.560375e+03
  9.234750e+00    2.686126e+03
  9.245250e+00    2.737577e+03
  9.255750e+00    2.931694e+03
  9.266250e+00    3.118050e+03
  9.276750e+00    3.275257e+03
  9.287250e+00    3.375854e+03
  9.297750e+00    3.519577e+03
  9.308250e+00    3.579822e+03
  9.318750e+00    3.670965e+03
  9.329250e+00    3.610670e+03
  9.339750e+00    3.442196e+03
  9.350250e+00    3.255508e+03
  9.360750e+00    2.932125e+03
  9.371250e+00    2.577534e+03
  9.381750e+00    2.272553e+03
  9.392250e+00    2.145664e+03
  9.402750e+00    1.959542e+03
  9.413250e+00    1.889370e+03
  9.423750e+00    1.785442e+03
  9.434250e+00    1.709182e+03
  9.444750e+00    1.664688e+03
  9.455250e+00    1.639059e+03
  9.465750e+00    1.666978e+03
  9.476250e+00    1.713311e+03
  9.486750e+00    1.848027e+03
  9.497250e+00    1.925317e+03
  9.507750e+00    2.024820e+03
  9.518250e+00    2.101127e+03
  9.528750e+00    2.193261e+03
  9.539250e+00    2.267815e+03
  9.549750e+00    2.362561e+03
  9.560250e+00    2.478211e+03
  9.570750e+00    2.606959e+03
  9.581250e+00    2.713234e+03
  9.591750e+00    2.829589e+03
  9.602250e+00    2.973576e+03
  9.612750e+00    3.253204e+03
  9.623250e+00    3.395468e+03
  9.633750e+00    3.709675e+03
  9.644250e+00    3.794350e+03
  9.654750e+00    4.028967e+03
  9.665250e+00    4.185820e+03
  9.675750e+00    4.218798e+03
  9.686250e+00    4.262986e+03
  9.696750e+00    4.178100e+03
  9.707250e+00    3.919501e+03
  9.717750e+00    3.631948e+03
  9.728250e+00    3.354193e+03
  9.738750e+00    3.073289e+03
  9.749250e+00    2.985235e+03
  9.759750e+00    2.852452e+03
  9.770250e+00    2.803938e+03
  9.780750e+00    2.732277e+03
  9.791250e+00    2.664829e+03
  9.801750e+00    2.635772e+03
  9.812250e+00    2.490158e+03
  9.822750e+00    2.410500e+03
  9.833250e+00    2.310282e+03
  9.843750e+00    2.227877e+03
  9.854250e+00    2.152987e+03
  9.864750e+00    2.095038e+03
  9.875250e+00    2.071091e+03
  9.885750e+00    2.056387e+03
  9.896250e+00    2.047815e+03
  9.906750e+00    2.024773e+03
  9.917250e+00    2.002359e+03
  9.927750e+00    2.012090e+03
  9.938250e+00    1.940757e+03
  9.948750e+00    1.913734e+03
  9.959250e+00    1.896879e+03
  9.969750e+00    1.862182e+03
  9.980250e+00    1.869054e+03
  9.990750e+00    1.855014e+03
  1.000125e+01    1.871593e+03
  1.001175e+01    1.929421e+03
  1.002225e+01    1.987134e+03
  1.003275e+01    2.047308e+03
  1.004325e+01    2.143857e+03
  1.005375e+01    2.241446e+03
  1.006425e+01    2.351467e+03
  1.007475e+01    2.500890e+03
  1.008525e+01    2.609510e+03
  1.009575e+01    2.764853e+03
  1.010625e+01    2.873183e+03
  1.011675e+01    3.033620e+03
  1.012725e+01    3.103161e+03
  1.013775e+01    3.206329e+03
  1.014825e+01    3.267887e+03
  1.015875e+01    3.287381e+03
  1.016925e+01    3.156685e+03
  1.017975e+01    3.005968e+03
  1.019025e+01    2.894985e+03
  1.020075e+01    2.766904e+03
  1.021125e+01    2.750142e+03
  1.022175e+01    2.765590e+03
  1.023225e+01    2.745240e+03
  1.024275e+01    2.727826e+03
  1.025325e+01    2.639456e+03
  1.026375e+01    2.504119e+03
  1.027425e+01    2.422274e+03
  1.028475e+01    2.246193e+03
  1.029525e+01    2.077033e+03
  1.030575e+01    1.942933e+03
  1.031625e+01    1.755023e+03
  1.032675e+01    1.702458e+03
  1.033725e+01    1.600384e+03
  1.034775e+01    1.559325e+03
  1.035825e+01    1.505035e+03
  1.036875e+01    1.455284e+03
  1.037925e+01    1.443147e+03
  1.038975e+01    1.419821e+03
  1.040025e+01    1.428712e+03
  1.041075e+01    1.434205e+03
  1.042125e+01    1.461445e+03
  1.043175e+01    1.475833e+03
  1.044225e+01    1.481863e+03
  1.045275e+01    1.525066e+03
  1.046325e+01    1.569402e+03
  1.047375e+01    1.608885e+03
  1.048425e+01    1.644610e+03
  1.049475e+01    1.737340e+03
  1.050525e+01    1.766386e+03
  1.051575e+01    1.857996e+03
  1.052625e+01    1.931322e+03
  1.053675e+01    1.961363e+03
  1.054725e+01    2.043948e+03
  1.055775e+01    2.069868e+03
  1.056825e+01    2.193042e+03
  1.057875e+01    2.235019e+03
  1.058925e+01    2.309786e+03
  1.059975e+01    2.378085e+03
  1.061025e+01    2.459240e+03
  1.062075e+01    2.530888e+03
  1.063125e+01    2.570424e+03
  1.064175e+01    2.657435e+03
  1.065225e+01    2.649128e+03
  1.066275e+01    2.771635e+03
  1.067325e+01    2.771892e+03
  1.068375e+01    2.803601e+03
  1.069425e+01    2.848991e+03
  1.070475e+01    2.805203e+03
  1.071525e+01    2.725757e+03
  1.072575e+01    2.747606e+03
  1.073625e+01    2.627100e+03
  1.074675e+01    2.541563e+03
  1.075725e+01    2.489468e+03
  1.076775e+01    2.441548e+03
  1.077825e+01    2.439943e+03
  1.078875e+01    2.405929e+03
  1.079925e+01    2.329257e+03
  1.080975e+01    2.276834e+03
  1.082025e+01    2.253854e+03
  1.083075e+01    2.145534e+03
  1.084125e+01    2.106078e+03
  1.085175e+01    2.045757e+03
  1.086225e+01    1.949863e+03
  1.087275e+01    1.971137e+03
  1.088325e+01    1.911866e+03
  1.089375e+01    1.982511e+03
  1.090425e+01    1.937302e+03
  1.091475e+01    1.953066e+03
  1.092525e+01    1.986107e+03
  1.093575e+01    1.986024e+03
  1.094625e+01    2.018647e+03
  1.095675e+01    2.036441e+03
  1.096725e+01    2.070452e+03
  1.097775e+01    2.128602e+03
  1.098825e+01    2.181238e+03
  1.099875e+01    2.236818e+03
  1.100925e+01    2.253789e+03
  1.101975e+01    2.291637e+03
  1.103025e+01    2.328252e+03
  1.104075e+01    2.341514e+03
  1.105125e+01    2.414743e+03
  1.106175e+01    2.402132e+03
  1.107225e+01    2.405081e+03
  1.108275e+01    2.421539e+03
  1.109325e+01    2.365857e+03
  1.110375e+01    2.322181e+03
  1.111425e+01    2.283778e+03
  1.112475e+01    2.205717e+03
  1.113525e+01    2.071246e+03
  1.114575e+01    1.917321e+03
  1.115625e+01    1.823210e+03
  1.116675e+01    1.664099e+03
  1.117725e+01    1.612858e+03
  1.118775e+01    1.531139e+03
  1.119825e+01    1.475877e+03
  1.120875e+01    1.451927e+03
  1.121925e+01    1.438263e+03
  1.122975e+01    1.443804e+03
  1.124025e+01    1.476606e+03
  1.125075e+01    1.503004e+03
  1.126125e+01    1.541328e+03
  1.127175e+01    1.590379e+03
  1.128225e+01    1.637775e+03
  1.129275e+01    1.662363e+03
  1.130325e+01    1.690319e+03
  1.131375e+01    1.732626e+03
  1.132425e+01    1.766347e+03
  1.133475e+01    1.773265e+03
  1.134525e+01    1.807633e+03
  1.135575e+01    1.826718e+03
  1.136625e+01    1.814022e+03
  1.137675e+01    1.804208e+03
  1.138725e+01    1.822245e+03
  1.139775e+01    1.817136e+03
  1.140825e+01    1.804418e+03
  1.141875e+01    1.792894e+03
  1.142925e+01    1.802243e+03
  1.143975e+01    1.770506e+03
  1.145025e+01    1.762697e+03
  1.146075e+01    1.741010e+03
  1.147125e+01    1.721499e+03
  1.148175e+01    1.687372e+03
  1.149225e+01    1.665906e+03
  1.150275e+01    1.693490e+03
  1.151325e+01    1.720256e+03
  1.152375e+01    1.706115e+03
  1.153425e+01    1.744546e+03
  1.154475e+01    1.756592e+03
  1.155525e+01    1.769976e+03
  1.156575e+01    1.761659e+03
  1.157625e+01    1.748806e+03
  1.158675e+01    1.731354e+03
  1.159725e+01    1.709822e+03
  1.160775e+01    1.673350e+03
  1.161825e+01    1.635558e+03
  1.162875e+01    1.586874e+03
  1.163925e+01    1.570635e+03
  1.164975e+01    1.475796e+03
  1.166025e+01    1.423855e+03
  1.167075e+01    1.348890e+03
  1.168125e+01    1.316256e+03
  1.169175e+01    1.296821e+03
  1.170225e+01    1.301901e+03
  1.171275e+01    1.302598e+03
  1.172325e+01    1.307398e+03
  1.173375e+01    1.352670e+03
  1.174425e+01    1.375428e+03
  1.175475e+01    1.419612e+03
  1.176525e+01    1.442445e+03
  1.177575e+01    1.495433e+03
  1.178625e+01    1.543460e+03
  1.179675e+01    1.559840e+03
  1.180725e+01    1.636644e+03
  1.181775e+01    1.678355e+03
  1.182825e+01    1.757434e+03
  1.183875e+01    1.802764e+03
  1.184925e+01    1.838014e+03
  1.185975e+01    1.819051e+03
  1.187025e+01    1.817992e+03
  1.188075e+01    1.798791e+03
  1.189125e+01    1.779668e+03
  1.190175e+01    1.737404e+03
  1.191225e+01    1.681170e+03
  1.192275e+01    1.625928e+03
  1.193325e+01    1.576700e+03
  1.194375e+01    1.513505e+03
  1.195425e+01    1.419944e+03
  1.196475e+01    1.359865e+03
  1.197525e+01    1.294249e+03
  1.198575e+01    1.232439e+03
  1.199625e+01    1.183696e+03
  1.200675e+01    1.155089e+03
  1.201725e+01    1.119199e+03
  1.202775e+01    1.100251e+03
  1.203825e+01    1.095738e+03
  1.204875e+01    1.101748e+03
  1.205925e+01    1.117362e+03
  1.206975e+01    1.148076e+03
  1.208025e+01    1.195637e+03
  1.209075e+01    1.258337e+03
  1.210125e+01    1.328191e+03
  1.211175e+01    1.395030e+03
  1.212225e+01    1.491561e+03
  1.213275e+01    1.536590e+03
  1.214325e+01    1.615790e+03
  1.215375e+01    1.616420e+03
  1.216425e+01    1.678027e+03
  1.217475e+01    1.700879e+03
  1.218525e+01    1.732173e+03
  1.219575e+01    1.763147e+03
  1.220625e+01    1.777421e+03
  1.221675e+01    1.786538e+03
  1.222725e+01    1.791494e+03
  1.223775e+01    1.776847e+03
  1.224825e+01    1.731482e+03
  1.225875e+01    1.687030e+03
  1.226925e+01    1.645794e+03
  1.227975e+01    1.590174e+03
  1.229025e+01    1.522352e+03
  1.230075e+01    1.467351e+03
  1.231125e+01    1.437232e+03
  1.232175e+01    1.393780e+03
  1.233225e+01    1.359435e+03
  1.234275e+01    1.320097e+03
  1.235325e+01    1.271313e+03
  1.236375e+01    1.268860e+03
  1.237425e+01    1.240596e+03
  1.238475e+01    1.229394e+03
  1.239525e+01    1.243985e+03
  1.240575e+01    1.231722e+03
  1.241625e+01    1.252016e+03
  1.242675e+01    1.260872e+03
  1.243725e+01    1.275731e+03
  1.244775e+01    1.318603e+03
  1.245825e+01    1.360908e+03
  1.246875e+01    1.425733e+03
  1.247925e+01    1.456693e+03
  1.248975e+01    1.529983e+03
  1.250025e+01    1.520708e+03
  1.251075e+01    1.548192e+03
  1.252125e+01    1.550073e+03
  1.253175e+01    1.528685e+03
  1.254225e+01    1.517444e+03
  1.255275e+01    1.485100e+03
  1.256325e+01    1.472141e+03
  1.257375e+01    1.461787e+03
  1.258425e+01    1.498869e+03
  1.259475e+01    1.509286e+03
  1.260525e+01    1.489247e+03
  1.261575e+01    1.430615e+03
  1.262625e+01    1.356512e+03
  1.263675e+01    1.269030e+03
  1.264725e+01    1.233648e+03
  1.265775e+01    1.173085e+03
  1.266825e+01    1.136705e+03
  1.267875e+01    1.126696e+03
  1.268925e+01    1.090494e+03
  1.269975e+01    1.084457e+03
  1.271025e+01    1.053041e+03
  1.272075e+01    1.031034e+03
  1.273125e+01    1.024915e+03
  1.274175e+01    1.019219e+03
  1.275225e+01    1.013981e+03
  1.276275e+01    1.014463e+03
  1.277325e+01    1.015736e+03
  1.278375e+01    1.015256e+03
  1.279425e+01    1.018060e+03
  1.280475e+01    1.039964e+03
  1.281525e+01    1.041045e+03
  1.282575e+01    1.053342e+03
  1.283625e+01    1.064932e+03
  1.284675e+01    1.081717e+03
  1.285725e+01    1.100823e+03
  1.286775e+01    1.117120e+03
  1.287825e+01    1.144032e+03
  1.288875e+01    1.175707e+03
  1.289925e+01    1.197793e+03
  1.290975e+01    1.251492e+03
  1.292025e+01    1.301102e+03
  1.293075e+01    1.360991e+03
  1.294125e+01    1.403954e+03
  1.295175e+01    1.409663e+03
  1.296225e+01    1.424832e+03
  1.297275e+01    1.419861e+03
  1.298325e+01    1.430890e+03
  1.299375e+01    1.423118e+03
  1.300425e+01    1.427041e+03
  1.301475e+01    1.418908e+03
  1.302525e+01    1.405937e+03
  1.303575e+01    1.392614e+03
  1.304625e+01    1.380919e+03
  1.305675e+01    1.346239e+03
  1.306725e+01    1.314009e+03
  1.307775e+01    1.254342e+03
  1.308825e+01    1.199487e+03
  1.309875e+01    1.157267e+03
  1.310925e+01    1.140092e+03
  1.311975e+01    1.110836e+03
  1.313025e+01    1.108162e+03
  1.314075e+01    1.099711e+03
  1.315125e+01    1.098934e+03
  1.316175e+01    1.108963e+03
  1.317225e+01    1.123308e+03
  1.318275e+01    1.151403e+03
  1.319325e+01    1.168650e+03
  1.320375e+01    1.182953e+03
  1.321425e+01    1.186199e+03
  1.322475e+01    1.189916e+03
  1.323525e+01    1.180663e+03
  1.324575e+01    1.165187e+03
  1.325625e+01    1.155432e+03
  1.326675e+01    1.139167e+03
  1.327725e+01    1.142052e+03
  1.328775e+01    1.138916e+03
  1.329825e+01    1.123960e+03
  1.330875e+01    1.104872e+03
  1.331925e+01    1.070973e+03
  1.332975e+01    1.055393e+03
  1.334025e+01    1.022168e+03
  1.335075e+01    9.854942e+02
  1.336125e+01    9.495427e+02
  1.337175e+01    9.275274e+02
  1.338225e+01    9.106670e+02
  1.339275e+01    8.870549e+02
  1.340325e+01    8.734152e+02
  1.341375e+01    8.694483e+02
  1.342425e+01    8.616419e+02
  1.343475e+01    8.607201e+02
  1.344525e+01    8.589550e+02
  1.345575e+01    8.624136e+02
  1.346625e+01    8.668689e+02
  1.347675e+01    8.799537e+02
  1.348725e+01    8.892092e+02
  1.349775e+01    9.096356e+02
  1.350825e+01    9.320994e+02
  1.351875e+01    9.505453e+02
  1.352925e+01    9.868314e+02
  1.353975e+01    1.005020e+03
  1.355025e+01    1.021914e+03
  1.356075e+01    1.028998e+03
  1.357125e+01    1.035448e+03
  1.358175e+01    1.036629e+03
  1.359225e+01    1.032415e+03
  1.360275e+01    1.038783e+03
  1.361325e+01    1.029637e+03
  1.362375e+01    1.030122e+03
  1.363425e+01    1.027740e+03
  1.364475e+01    1.030170e+03
  1.365525e+01    1.029761e+03
  1.366575e+01    1.031552e+03
  1.367625e+01    1.017457e+03
  1.368675e+01    1.011030e+03
  1.369725e+01    1.012734e+03
  1.370775e+01    1.006351e+03
  1.371825e+01    9.985380e+02
  1.372875e+01    9.822259e+02
  1.373925e+01    9.797245e+02
  1.374975e+01    9.565231e+02
  1.376025e+01    9.442664e+02
  1.377075e+01    9.312474e+02
  1.378125e+01    9.310270e+02
  1.379175e+01    9.218110e+02
  1.380225e+01    9.151685e+02
  1.381275e+01    9.082344e+02
  1.382325e+01    9.067015e+02
  1.383375e+01    8.958519e+02
  1.384425e+01    8.886858e+02
  1.385475e+01    8.789095e+02
  1.386525e+01    8.762554e+02
  1.387575e+01    8.661016e+02
  1.388625e+01    8.725952e+02
  1.389675e+01    8.743871e+02
  1.390725e+01    8.841042e+02
  1.391775e+01    8.981995e+02
  1.392825e+01    9.159815e+02
  1.393875e+01    9.259243e+02
  1.394925e+01    9.358343e+02
  1.395975e+01    9.383532e+02
  1.397025e+01    9.330967e+02
  1.398075e+01    9.213483e+02
  1.399125e+01    9.097249e+02
  1.400175e+01    8.822393e+02
  1.401225e+01    8.744664e+02
  1.402275e+01    8.529964e+02
  1.403325e+01    8.490707e+02
  1.404375e+01    8.391318e+02
  1.405425e+01    8.399193e+02
  1.406475e+01    8.318071e+02
  1.407525e+01    8.207563e+02
  1.408575e+01    8.073406e+02
  1.409625e+01    7.996010e+02
  1.410675e+01    7.923113e+02
  1.411725e+01    7.867849e+02
  1.412775e+01    7.817551e+02
  1.413825e+01    7.907697e+02
  1.414875e+01    8.020041e+02
  1.415925e+01    8.200587e+02
  1.416975e+01    8.469656e+02
  1.418025e+01    8.854699e+02
  1.419075e+01    9.109603e+02
  1.420125e+01    9.311219e+02
  1.421175e+01    9.375474e+02
  1.422225e+01    9.573603e+02
  1.423275e+01    9.582762e+02
  1.424325e+01    9.628741e+02
  1.425375e+01    9.734808e+02
  1.426425e+01    9.736246e+02
  1.427475e+01    9.775074e+02
  1.428525e+01    9.771985e+02
  1.429575e+01    9.766490e+02
  1.430625e+01    9.677333e+02
  1.431675e+01    9.610483e+02
  1.432725e+01    9.402952e+02
  1.433775e+01    9.242891e+02
  1.434825e+01    9.015295e+02
  1.435875e+01    8.776103e+02
  1.436925e+01    8.473407e+02
  1.437975e+01    8.285599e+02
  1.439025e+01    8.107515e+02
  1.440075e+01    7.879446e+02
  1.441125e+01    7.672261e+02
  1.442175e+01    7.503697e+02
  1.443225e+01    7.370170e+02
  1.444275e+01    7.260021e+02
  1.445325e+01    7.188721e+02
  1.446375e+01    7.140410e+02
  1.447425e+01    7.146129e+02
  1.448475e+01    7.277856e+02
  1.449525e+01    7.306038e+02
  1.450575e+01    7.314446e+02
  1.451625e+01    7.403997e+02
  1.452675e+01    7.446149e+02
  1.453725e+01    7.560474e+02
  1.454775e+01    7.608666e+02
  1.455825e+01    7.723821e+02
  1.456875e+01    7.801827e+02
  1.457925e+01    7.957694e+02
  1.458975e+01    8.008947e+02
  1.460025e+01    8.030372e+02
  1.461075e+01    7.972072e+02
  1.462125e+01    7.896046e+02
  1.463175e+01    7.739992e+02
  1.464225e+01    7.601107e+02
  1.465275e+01    7.453199e+02
  1.466325e+01    7.316987e+02
  1.467375e+01    7.202929e+02
  1.468425e+01    7.085248e+02
  1.469475e+01    7.089123e+02
  1.470525e+01    6.907064e+02
  1.471575e+01    6.814088e+02
  1.472625e+01    6.718280e+02
  1.473675e+01    6.636144e+02
  1.474725e+01    6.514575e+02
  1.475775e+01    6.458373e+02
  1.476825e+01    6.380740e+02
  1.477875e+01    6.325518e+02
  1.478925e+01    6.326309e+02
  1.479975e+01    6.329748e+02
  1.481025e+01    6.331000e+02
  1.482075e+01    6.400519e+02
  1.483125e+01    6.469953e+02
  1.484175e+01    6.546404e+02
  1.485225e+01    6.613943e+02
  1.486275e+01    6.703145e+02
  1.487325e+01    6.821343e+02
  1.488375e+01    6.863406e+02
  1.489425e+01    6.950819e+02
  1.490475e+01    6.935247e+02
  1.491525e+01    6.981083e+02
  1.492575e+01    6.971746e+02
  1.493625e+01    6.956083e+02
  1.494675e+01    7.021177e+02
  1.495725e+01    6.965417e+02
  1.496775e+01    6.928456e+02
  1.497825e+01    6.951208e+02
  1.498875e+01    6.910521e+02
  1.499925e+01    6.856348e+02
  1.500975e+01    6.799390e+02
  1.502025e+01    6.756672e+02
  1.503075e+01    6.763112e+02
  1.504125e+01    6.695416e+02
  1.505175e+01    6.644369e+02
  1.506225e+01    6.619274e+02
  1.507275e+01    6.626027e+02
  1.508325e+01    6.694520e+02
  1.509375e+01    6.815078e+02
  1.510425e+01    6.913671e+02
  1.511475e+01    6.977255e+02
  1.512525e+01    7.038497e+02
  1.513575e+01    6.987253e+02
  1.514625e+01    6.918450e+02
  1.515675e+01    6.782849e+02
  1.516725e+01    6.667687e+02
  1.517775e+01    6.652997e+02
  1.518825e+01    6.558807e+02
  1.519875e+01    6.587103e+02
  1.520925e+01    6.647991e+02
  1.521975e+01    6.676021e+02
  1.523025e+01    6.668790e+02
  1.524075e+01    6.557162e+02
  1.525125e+01    6.353119e+02
  1.526175e+01    6.262405e+02
  1.527225e+01    6.175468e+02
  1.528275e+01    6.116459e+02
  1.529325e+01    6.033984e+02
  1.530375e+01    5.928525e+02
  1.531425e+01    5.872319e+02
  1.532475e+01    5.784934e+02
  1.533525e+01    5.749640e+02
  1.534575e+01    5.739150e+02
  1.535625e+01    5.733066e+02
  1.536675e+01    5.702319e+02
  1.537725e+01    5.716852e+02
  1.538775e+01    5.802750e+02
  1.539825e+01    5.841851e+02
  1.540875e+01    5.922395e+02
  1.541925e+01    6.012938e+02
  1.542975e+01    6.071819e+02
  1.544025e+01    6.107844e+02
  1.545075e+01    6.113502e+02
  1.546125e+01    6.123632e+02
  1.547175e+01    6.103633e+02
  1.548225e+01    6.103403e+02
  1.549275e+01    6.093461e+02
  1.550325e+01    6.102242e+02
  1.551375e+01    6.041807e+02
  1.552425e+01    6.084908e+02
  1.553475e+01    6.096152e+02
  1.554525e+01    6.047591e+02
  1.555575e+01    6.005607e+02
  1.556625e+01    5.945383e+02
  1.557675e+01    5.842004e+02
  1.558725e+01    5.775872e+02
  1.559775e+01    5.681476e+02
  1.560825e+01    5.648940e+02
  1.561875e+01    5.636426e+02
  1.562925e+01    5.578771e+02
  1.563975e+01    5.446111e+02
  1.565025e+01    5.381301e+02
  1.566075e+01    5.328192e+02
  1.567125e+01    5.309217e+02
  1.568175e+01    5.297036e+02
  1.569225e+01    5.262881e+02
  1.570275e+01    5.279954e+02
  1.571325e+01    5.285319e+02
  1.572375e+01    5.256760e+02
  1.573425e+01    5.267886e+02
  1.574475e+01    5.279969e+02
  1.575525e+01    5.372620e+02
  1.576575e+01    5.439163e+02
  1.577625e+01    5.510197e+02
  1.578675e+01    5.521110e+02
  1.579725e+01    5.509872e+02
  1.580775e+01    5.516845e+02
  1.581825e+01    5.428066e+02
  1.582875e+01    5.372883e+02
  1.583925e+01    5.287379e+02
  1.584975e+01    5.171457e+02
  1.586025e+01    5.085375e+02
  1.587075e+01    5.024478e+02
  1.588125e+01    4.934600e+02
  1.589175e+01    4.871746e+02
  1.590225e+01    4.840560e+02
  1.591275e+01    4.762882e+02
  1.592325e+01    4.679669e+02
  1.593375e+01    4.562813e+02
  1.594425e+01    4.498514e+02
  1.595475e+01    4.447480e+02
  1.596525e+01    4.452400e+02
  1.597575e+01    4.457274e+02
  1.598625e+01    4.481190e+02
  1.599675e+01    4.526163e+02
  1.600725e+01    4.574283e+02
  1.601775e+01    4.609920e+02
  1.602825e+01    4.651302e+02
  1.603875e+01    4.681957e+02
  1.604925e+01    4.719594e+02
  1.605975e+01    4.764254e+02
  1.607025e+01    4.775452e+02
  1.608075e+01    4.756713e+02
  1.609125e+01    4.790690e+02
  1.610175e+01    4.793661e+02
  1.611225e+01    4.780915e+02
  1.612275e+01    4.761430e+02
  1.613325e+01    4.708397e+02
  1.614375e+01    4.642672e+02
  1.615425e+01    4.607699e+02
  1.616475e+01    4.588296e+02
  1.617525e+01    4.600074e+02
  1.618575e+01    4.610806e+02
  1.619625e+01    4.584110e+02
  1.620675e+01    4.598596e+02
  1.621725e+01    4.571398e+02
  1.622775e+01    4.545328e+02
  1.623825e+01    4.491612e+02
  1.624875e+01    4.514173e+02
  1.625925e+01    4.543006e+02
  1.626975e+01    4.540854e+02
  1.628025e+01    4.550742e+02
  1.629075e+01    4.550518e+02
  1.630125e+01    4.546167e+02
  1.631175e+01    4.520443e+02
  1.632225e+01    4.508886e+02
  1.633275e+01    4.460172e+02
  1.634325e+01    4.418064e+02
  1.635375e+01    4.384954e+02
  1.636425e+01    4.336344e+02
  1.637475e+01    4.276931e+02
  1.638525e+01    4.210910e+02
  1.639575e+01    4.137695e+02
  1.640625e+01    4.036091e+02
  1.641675e+01    3.963585e+02
  1.642725e+01    3.900406e+02
  1.643775e+01    3.836512e+02
  1.644825e+01    3.785979e+02
  1.645875e+01    3.755777e+02
  1.646925e+01    3.760386e+02
  1.647975e+01    3.723620e+02
  1.649025e+01    3.686381e+02
  1.650075e+01    3.670024e+02
  1.651125e+01    3.626751e+02
  1.652175e+01    3.614255e+02
  1.653225e+01    3.602053e+02
  1.654275e+01    3.606020e+02
  1.655325e+01    3.625964e+02
  1.656375e+01    3.641703e+02
  1.657425e+01    3.658900e+02
  1.658475e+01    3.684852e+02
  1.659525e+01    3.668757e+02
  1.660575e+01    3.684756e+02
  1.661625e+01    3.698013e+02
  1.662675e+01    3.703914e+02
  1.663725e+01    3.682462e+02
  1.664775e+01    3.643750e+02
  1.665825e+01    3.611841e+02
  1.666875e+01    3.566021e+02
  1.667925e+01    3.526074e+02
  1.668975e+01    3.479957e+02
  1.670025e+01    3.434675e+02
  1.671075e+01    3.399773e+02
  1.672125e+01    3.384081e+02
  1.673175e+01    3.281299e+02
  1.674225e+01    3.215110e+02
  1.675275e+01    3.177171e+02
  1.676325e+01    3.111570e+02
  1.677375e+01    3.040667e+02
  1.678425e+01    3.036187e+02
  1.679475e+01    3.044589e+02
  1.680525e+01    3.066843e+02
  1.681575e+01    3.111245e+02
  1.682625e+01    3.107077e+02
  1.683675e+01    3.128769e+02
  1.684725e+01    3.091008e+02
  1.685775e+01    3.056687e+02
  1.686825e+01    3.053067e+02
  1.687875e+01    3.071074e+02
  1.688925e+01    3.081611e+02
  1.689975e+01    3.115784e+02
  1.691025e+01    3.090247e+02
  1.692075e+01    3.032228e+02
  1.693125e+01    2.991891e+02
  1.694175e+01    2.922877e+02
  1.695225e+01    2.883848e+02
  1.696275e+01    2.813765e+02
  1.697325e+01    2.747182e+02
  1.698375e+01    2.697526e+02
  1.699425e+01    2.736902e+02
  1.700475e+01    2.730694e+02
  1.701525e+01    2.720441e+02
  1.702575e+01    2.700336e+02
  1.703625e+01    2.659736e+02
  1.704675e+01    2.648211e+02
  1.705725e+01    2.648751e+02
  1.706775e+01    2.692093e+02
  1.707825e+01    2.758943e+02
  1.708875e+01    2.818970e+02
  1.709925e+01    2.815786e+02
  1.710975e+01    2.770769e+02
  1.712025e+01    2.687061e+02
  1.713075e+01    2.643482e+02
  1.714125e+01    2.593315e+02
  1.715175e+01    2.564633e+02
  1.716225e+01    2.545003e+02
  1.717275e+01    2.548254e+02
  1.718325e+01    2.535138e+02
  1.719375e+01    2.552933e+02
  1.720425e+01    2.572869e+02
  1.721475e+01    2.553024e+02
  1.722525e+01    2.528270e+02
  1.723575e+01    2.436006e+02
  1.724625e+01    2.361742e+02
  1.725675e+01    2.257494e+02
  1.726725e+01    2.230284e+02
  1.727775e+01    2.176747e+02
  1.728825e+01    2.163215e+02
  1.729875e+01    2.117300e+02
  1.730925e+01    2.106727e+02
  1.731975e+01    2.055697e+02
  1.733025e+01    2.084878e+02
  1.734075e+01    2.052719e+02
  1.735125e+01    2.031069e+02
  1.736175e+01    1.990723e+02
  1.737225e+01    1.939252e+02
  1.738275e+01    1.935660e+02
  1.739325e+01    1.927161e+02
  1.740375e+01    1.966179e+02
  1.741425e+01    1.951900e+02
  1.742475e+01    1.948098e+02
  1.743525e+01    1.895030e+02
  1.744575e+01    1.843333e+02
  1.745625e+01    1.777168e+02
  1.746675e+01    1.751418e+02
  1.747725e+01    1.715468e+02
  1.748775e+01    1.691289e+02
  1.749825e+01    1.679957e+02
  1.750875e+01    1.669812e+02
  1.751925e+01    1.674792e+02
  1.752975e+01    1.662579e+02
  1.754025e+01    1.686996e+02
  1.755075e+01    1.657872e+02
  1.756125e+01    1.604904e+02
  1.757175e+01    1.552695e+02
  1.758225e+01    1.491113e+02
  1.759275e+01    1.484671e+02
  1.760325e+01    1.478445e+02
  1.761375e+01    1.461443e+02
  1.762425e+01    1.451058e+02
  1.763475e+01    1.429607e+02
  1.764525e+01    1.423161e+02
  1.765575e+01    1.428157e+02
  1.766625e+01    1.417150e+02
  1.767675e+01    1.413093e+02
  1.768725e+01    1.393333e+02
  1.769775e+01    1.350422e+02
  1.770825e+01    1.335889e+02
  1.771875e+01    1.329708e+02
  1.772925e+01    1.308869e+02
  1.773975e+01    1.302576e+02
  1.775025e+01    1.284994e+02
  1.776075e+01    1.249014e+02
  1.777125e+01    1.232266e+02
  1.778175e+01    1.265732e+02
  1.779225e+01    1.263007e+02
  1.780275e+01    1.232472e+02
  1.781325e+01    1.215501e+02
  1.782375e+01    1.178832e+02
  1.783425e+01    1.168587e+02
  1.784475e+01    1.154938e+02
  1.785525e+01    1.147961e+02
  1.786575e+01    1.146200e+02
  1.787625e+01    1.121284e+02
  1.788675e+01    1.100940e+02
  1.789725e+01    1.064165e+02
  1.790775e+01    1.050056e+02
  1.791825e+01    1.040869e+02
  1.792875e+01    1.032366e+02
  1.793925e+01    1.007508e+02
  1.794975e+01    9.909795e+01
  1.796025e+01    9.713174e+01
  1.797075e+01    9.625706e+01
  1.798125e+01    9.345551e+01
  1.799175e+01    9.243771e+01
  1.800225e+01    9.117073e+01
  1.801275e+01    8.908604e+01
  1.802325e+01    8.741695e+01
  1.803375e+01    8.539847e+01
  1.804425e+01    8.404089e+01
  1.805475e+01    8.269929e+01
  1.806525e+01    8.174660e+01
  1.807575e+01    8.056991e+01
  1.808625e+01    7.921674e+01
  1.809675e+01    7.857851e+01
  1.810725e+01    7.811133e+01
  1.811775e+01    7.728345e+01
  1.812825e+01    7.652365e+01
  1.813875e+01    7.553529e+01
  1.814925e+01    7.527983e+01
  1.815975e+01    7.515446e+01
  1.817025e+01    7.560137e+01
  1.818075e+01    7.495098e+01
  1.819125e+01    7.381068e+01
  1.820175e+01    7.270840e+01
  1.821225e+01    7.107929e+01
  1.822275e+01    7.041002e+01
  1.823325e+01    6.944105e+01
  1.824375e+01    6.858830e+01
  1.825425e+01    6.780676e+01
  1.826475e+01    6.628030e+01
  1.827525e+01    6.508835e+01
  1.828575e+01    6.431816e+01
  1.829625e+01    6.335835e+01
  1.830675e+01    6.224056e+01
  1.831725e+01    6.067238e+01
  1.832775e+01    5.920908e+01
  1.833825e+01    5.895455e+01
  1.834875e+01    5.969486e+01
  1.835925e+01    6.040420e+01
  1.836975e+01    6.083447e+01
  1.838025e+01    6.033781e+01
  1.839075e+01    5.876250e+01
  1.840125e+01    5.727761e+01
  1.841175e+01    5.645974e+01
  1.842225e+01    5.631757e+01
  1.843275e+01    5.632521e+01
  1.844325e+01    5.612167e+01
  1.845375e+01    5.421368e+01
  1.846425e+01    5.301466e+01
  1.847475e+01    5.217071e+01
  1.848525e+01    5.102567e+01
  1.849575e+01    4.969030e+01
  1.850625e+01    4.837687e+01
  1.851675e+01    4.692009e+01
  1.852725e+01    4.620462e+01
  1.853775e+01    4.593334e+01
  1.854825e+01    4.569069e+01
  1.855875e+01    4.479052e+01
  1.856925e+01    4.387794e+01
  1.857975e+01    4.307124e+01
  1.859025e+01    4.262264e+01
  1.860075e+01    4.246152e+01
  1.861125e+01    4.217288e+01
  1.862175e+01    4.174782e+01
  1.863225e+01    4.133559e+01
  1.864275e+01    4.088104e+01
  1.865325e+01    4.067282e+01
  1.866375e+01    4.065331e+01
  1.867425e+01    4.023278e+01
  1.868475e+01    3.959153e+01
  1.869525e+01    3.899727e+01
  1.870575e+01    3.864090e+01
  1.871625e+01    3.850011e+01
  1.872675e+01    3.838414e+01
  1.873725e+01    3.797273e+01
  1.874775e+01    3.725883e+01
  1.875825e+01    3.634178e+01
  1.876875e+01    3.568478e+01
  1.877925e+01    3.519090e+01
  1.878975e+01    3.488068e+01
  1.880025e+01    3.436617e+01
  1.881075e+01    3.380412e+01
  1.882125e+01    3.324622e+01
  1.883175e+01    3.285550e+01
  1.884225e+01    3.268427e+01
  1.885275e+01    3.244725e+01
  1.886325e+01    3.190911e+01
  1.887375e+01    3.160526e+01
  1.888425e+01    3.107153e+01
  1.889475e+01    3.091434e+01
  1.890525e+01    3.073828e+01
  1.891575e+01    3.085711e+01
  1.892625e+01    3.064791e+01
  1.893675e+01    3.027650e+01
  1.894725e+01    2.990945e+01
  1.895775e+01    2.963066e+01
  1.896825e+01    2.925497e+01
  1.897875e+01    2.890668e+01
  1.898925e+01    2.852118e+01
  1.899975e+01    2.803262e+01
  1.901025e+01    2.779523e+01
  1.902075e+01    2.755215e+01
  1.903125e+01    2.730996e+01
  1.904175e+01    2.691314e+01
  1.905225e+01    2.650234e+01
  1.906275e+01    2.623061e+01
  1.907325e+01    2.603203e+01
  1.908375e+01    2.607774e+01
  1.909425e+01    2.608697e+01
  1.910475e+01    2.601463e+01
  1.911525e+01    2.591742e+01
  1.912575e+01    2.576450e+01
  1.913625e+01    2.560472e+01
  1.914675e+01    2.531088e+01
  1.915725e+01    2.513784e+01
  1.916775e+01    2.499098e+01
  1.917825e+01    2.482266e+01
  1.918875e+01    2.457519e+01
  1.919925e+01    2.431660e+01
  1.920975e+01    2.402698e+01
  1.922025e+01    2.360979e+01
  1.923075e+01    2.315993e+01
  1.924125e+01    2.286509e+01
  1.925175e+01    2.257410e+01
  1.926225e+01    2.246723e+01
  1.927275e+01    2.224969e+01
  1.928325e+01    2.203284e+01
  1.929375e+01    2.180727e+01
  1.930425e+01    2.157303e+01
  1.931475e+01    2.140847e+01
  1.932525e+01    2.126862e+01
  1.933575e+01    2.127617e+01
  1.934625e+01    2.121191e+01
  1.935675e+01    2.110856e+01
  1.936725e+01    2.101790e+01
  1.937775e+01    2.086737e+01
  1.938825e+01    2.068628e+01
  1.939875e+01    2.065294e+01
  1.940925e+01    2.040331e+01
  1.941975e+01    2.007138e+01
  1.943025e+01    1.987694e+01
  1.944075e+01    1.967980e+01
  1.945125e+01    1.940647e+01
  1.946175e+01    1.917493e+01
  1.947225e+01    1.898211e+01
  1.948275e+01    1.879613e+01
  1.949325e+01    1.869161e+01
  1.950375e+01    1.851030e+01
  1.951425e+01    1.827841e+01
  1.952475e+01    1.809940e+01
  1.953525e+01    1.783754e+01
  1.954575e+01    1.768856e+01
  1.955625e+01    1.757979e+01
  1.956675e+01    1.747853e+01
  1.957725e+01    1.740010e+01
  1.958775e+01    1.727842e+01
  1.959825e+01    1.711259e+01
  1.960875e+01    1.702544e+01
  1.961925e+01    1.698393e+01
  1.962975e+01    1.686640e+01
  1.964025e+01    1.673669e+01
  1.965075e+01    1.655127e+01
  1.966125e+01    1.647509e+01
  1.967175e+01    1.640836e+01
  1.968225e+01    1.627126e+01
  1.969275e+01    1.621630e+01
  1.970325e+01    1.603977e+01
  1.971375e+01    1.585310e+01
  1.972425e+01    1.578928e+01
  1.973475e+01    1.561023e+01
  1.974525e+01    1.544383e+01
  1.975575e+01    1.533842e+01
  1.976625e+01    1.515213e+01
  1.977675e+01    1.502411e+01
  1.978725e+01    1.496480e+01
  1.979775e+01    1.485791e+01
  1.980825e+01    1.473313e+01
  1.981875e+01    1.465468e+01
  1.982925e+01    1.449336e+01
  1.983975e+01    1.440182e+01
  1.985025e+01    1.435016e+01
  1.986075e+01    1.430286e+01
  1.987125e+01    1.423623e+01
  1.988175e+01    1.413052e+01
  1.989225e+01    1.401789e+01
  1.990275e+01    1.392407e+01
  1.991325e+01    1.374010e+01
  1.992375e+01    1.357262e+01
  1.993425e+01    1.343489e+01
  1.994475e+01    1.332115e+01
  1.995525e+01    1.320434e+01
  1.996575e+01    1.308411e+01
  1.997625e+01    1.294435e+01
  1.998675e+01    1.283036e+01
  1.999725e+01    1.274146e+01
  2.000775e+01    1.265971e+01
  2.001825e+01    1.258339e+01
  2.002875e+01    1.250146e+01
  2.003925e+01    1.242176e+01
  2.004975e+01    1.234323e+01
  2.006025e+01    1.226215e+01
  2.007075e+01    1.219979e+01
  2.008125e+01    1.212521e+01
  2.009175e+01    1.206700e+01
  2.010225e+01    1.203455e+01
  2.011275e+01    1.195910e+01
  2.012325e+01    1.186723e+01
  2.013375e+01    1.173145e+01
  2.014425e+01    1.164726e+01
  2.015475e+01    1.162381e+01
  2.016525e+01    1.155606e+01
  2.017575e+01    1.148939e+01
  2.018625e+01    1.138274e+01
  2.019675e+01    1.129931e+01
  2.020725e+01    1.121667e+01
  2.021775e+01    1.115970e+01
  2.022825e+01    1.107852e+01
  2.023875e+01    1.101907e+01
  2.024925e+01    1.093904e+01
  2.025975e+01    1.088391e+01
  2.027025e+01    1.077810e+01
  2.028075e+01    1.067038e+01
  2.029125e+01    1.059344e+01
  2.030175e+01    1.058095e+01
  2.031225e+01    1.054208e+01
  2.032275e+01    1.045739e+01
  2.033325e+01    1.035968e+01
  2.034375e+01    1.028995e+01
  2.035425e+01    1.023848e+01
  2.036475e+01    1.019334e+01
  2.037525e+01    1.006577e+01
  2.038575e+01    9.945665e+00
  2.039625e+01    9.895367e+00
  2.040675e+01    9.983056e+00
  2.041725e+01    9.970902e+00
  2.042775e+01    9.805835e+00
  2.043825e+01    9.755444e+00
  2.044875e+01    9.529251e+00
  2.045925e+01    9.539948e+00
  2.046975e+01    9.507476e+00
  2.048025e+01    9.541755e+00
  2.049075e+01    9.379773e+00
  2.050125e+01    9.311505e+00
  2.051175e+01    9.280363e+00
  2.052225e+01    9.330025e+00
  2.053275e+01    9.239346e+00
  2.054325e+01    9.318447e+00
  2.055375e+01    9.157214e+00
  2.056425e+01    9.018459e+00
  2.057475e+01    9.195703e+00
  2.058525e+01    8.530185e+00
  2.059575e+01             nan
  2.060625e+01             nan
  2.061675e+01             nan
  2.062725e+01             nan
  2.063775e+01             nan
  2.064825e+01             nan
  2.065875e+01             nan
  2.066925e+01             nan
  2.067975e+01             nan
  2.069025e+01             nan
  2.070075e+01             nan
  2.071125e+01             nan
  2.072175e+01             nan
  2.073225e+01             nan
  2.074275e+01             nan
  2.075325e+01             nan
  2.076375e+01             nan
  2.077425e+01             nan
  2.078475e+01             nan
  2.079525e+01             nan
  2.080575e+01             nan
  2.081625e+01             nan
  2.082675e+01             nan
  2.083725e+01             nan
  2.084775e+01             nan
  2.085825e+01             nan
  2.086875e+01             nan
  2.087925e+01             nan
  2.088975e+01             nan
  2.090025e+01             nan
  2.091075e+01             nan
  2.092125e+01             nan
  2.093175e+01             nan
  2.094225e+01             nan
  2.095275e+01             nan
  2.096325e+01             nan
  2.097375e+01             nan
  2.098425e+01             nan
  2.099475e+01             nan
