# xPDFsuite Configuration #
[PDF]
wavelength = 0.1
dataformat = QA
inputfile = B3_Bronze-3nm_ss_023.chi
backgroundfile = B3_Li-bkg_DD155_two_ss_att.chi
mode = xray
bgscale = 0.985
composition = Ti O2
outputtype = gr
qmaxinst = 23.5
qmin = 0.1
qmax = 23.0
rmax = 40.0
rmin = 0.0
rstep = 0.01
rpoly = 0.9

[Misc]
inputdir = E:/Beamtime/PETRA-III_September-2019/BeamData/processed/Run1/B3/integration_20210218/chi/chi_w_sigmas/chi_scaled
savedir = E:/Beamtime/PETRA-III_September-2019/BeamData/processed/Run1/B3/integration_20210218
backgroundfilefull = E:/Beamtime/PETRA-III_September-2019/BeamData/processed/Run1/B3/integration_20210218/chi/chi_w_sigmas/chi_scaled/B3_Li-bkg_DD155_two_ss_att.chi

#### start data
#S 1
#L r($\AA$)  G($\AA^{-2}$)
0 0
0.01 0.00484561
0.02 0.00943636
0.03 0.0135142
0.04 0.0168485
0.05 0.0193285
0.06 0.0206764
0.07 0.020977
0.08 0.020113
0.09 0.0181629
0.1 0.0152722
0.11 0.0114961
0.12 0.00714336
0.13 0.0023861
0.14 -0.00248876
0.15 -0.00724123
0.16 -0.0115685
0.17 -0.0153012
0.18 -0.018163
0.19 -0.0200387
0.2 -0.0208457
0.21 -0.0204305
0.22 -0.0189471
0.23 -0.0163349
0.24 -0.0128108
0.25 -0.00853454
0.26 -0.00369532
0.27 0.00141588
0.28 0.006552
0.29 0.0114325
0.3 0.0158083
0.31 0.0193824
0.32 0.0220441
0.33 0.0234743
0.34 0.0236787
0.35 0.0225416
0.36 0.0199935
0.37 0.016198
0.38 0.0110542
0.39 0.00485248
0.4 -0.0023154
0.41 -0.0102599
0.42 -0.0187283
0.43 -0.0275583
0.44 -0.0364827
0.45 -0.0453051
0.46 -0.0538059
0.47 -0.0618444
0.48 -0.0691517
0.49 -0.0756842
0.5 -0.0812388
0.51 -0.0856984
0.52 -0.0890253
0.53 -0.0909314
0.54 -0.0914995
0.55 -0.0904744
0.56 -0.0877703
0.57 -0.0833336
0.58 -0.0767845
0.59 -0.068248
0.6 -0.0573471
0.61 -0.0440451
0.62 -0.0282892
0.63 -0.00972322
0.64 0.0113533
0.65 0.0352277
0.66 0.0616222
0.67 0.0903568
0.68 0.121321
0.69 0.153909
0.7 0.187826
0.71 0.22236
0.72 0.256895
0.73 0.290587
0.74 0.322776
0.75 0.352334
0.76 0.378635
0.77 0.400807
0.78 0.417789
0.79 0.429473
0.8 0.434448
0.81 0.433054
0.82 0.424777
0.83 0.409383
0.84 0.387688
0.85 0.359145
0.86 0.325244
0.87 0.286403
0.88 0.243643
0.89 0.198289
0.9 0.151319
0.91 0.104232
0.92 0.0582554
0.93 0.014724
0.94 -0.0255221
0.95 -0.0608525
0.96 -0.0911995
0.97 -0.115561
0.98 -0.133787
0.99 -0.146222
1 -0.152456
1.01 -0.153906
1.02 -0.150948
1.03 -0.14494
1.04 -0.137165
1.05 -0.12905
1.06 -0.122063
1.07 -0.11786
1.08 -0.117772
1.09 -0.12287
1.1 -0.134817
1.11 -0.153498
1.12 -0.180176
1.13 -0.2143
1.14 -0.25552
1.15 -0.303496
1.16 -0.35637
1.17 -0.413141
1.18 -0.471524
1.19 -0.529562
1.2 -0.584651
1.21 -0.634889
1.22 -0.676965
1.23 -0.70938
1.24 -0.729837
1.25 -0.735888
1.26 -0.727668
1.27 -0.70198
1.28 -0.660513
1.29 -0.602587
1.3 -0.528685
1.31 -0.441429
1.32 -0.340822
1.33 -0.231061
1.34 -0.114195
1.35 0.00633031
1.36 0.127198
1.37 0.24438
1.38 0.354932
1.39 0.454967
1.4 0.541225
1.41 0.612101
1.42 0.662738
1.43 0.694254
1.44 0.703674
1.45 0.691215
1.46 0.658136
1.47 0.602958
1.48 0.530132
1.49 0.439974
1.5 0.336187
1.51 0.222016
1.52 0.100271
1.53 -0.0246826
1.54 -0.149452
1.55 -0.270298
1.56 -0.384199
1.57 -0.487137
1.58 -0.57797
1.59 -0.65297
1.6 -0.711838
1.61 -0.75367
1.62 -0.777026
1.63 -0.784267
1.64 -0.77421
1.65 -0.750013
1.66 -0.713117
1.67 -0.665409
1.68 -0.61027
1.69 -0.549503
1.7 -0.486409
1.71 -0.423273
1.72 -0.362667
1.73 -0.30618
1.74 -0.256302
1.75 -0.213414
1.76 -0.178635
1.77 -0.152344
1.78 -0.133599
1.79 -0.122848
1.8 -0.117869
1.81 -0.117738
1.82 -0.120596
1.83 -0.124569
1.84 -0.127609
1.85 -0.127994
1.86 -0.123757
1.87 -0.113333
1.88 -0.0959638
1.89 -0.0697058
1.9 -0.0353326
1.91 0.00798647
1.92 0.0594279
1.93 0.117852
1.94 0.182562
1.95 0.251128
1.96 0.321936
1.97 0.392499
1.98 0.460657
1.99 0.523421
2 0.579193
2.01 0.624784
2.02 0.658788
2.03 0.679685
2.04 0.684928
2.05 0.675444
2.06 0.648822
2.07 0.606562
2.08 0.548937
2.09 0.476117
2.1 0.391026
2.11 0.293913
2.12 0.188198
2.13 0.0758703
2.14 -0.0404571
2.15 -0.157926
2.16 -0.273668
2.17 -0.385163
2.18 -0.489781
2.19 -0.584748
2.2 -0.669051
2.21 -0.738956
2.22 -0.794908
2.23 -0.834921
2.24 -0.858129
2.25 -0.865662
2.26 -0.854984
2.27 -0.829219
2.28 -0.787814
2.29 -0.732135
2.3 -0.664368
2.31 -0.584582
2.32 -0.496218
2.33 -0.400358
2.34 -0.299402
2.35 -0.195485
2.36 -0.0906391
2.37 0.013016
2.38 0.113334
2.39 0.208433
2.4 0.296878
2.41 0.37611
2.42 0.445932
2.43 0.504003
2.44 0.549988
2.45 0.583394
2.46 0.60254
2.47 0.608908
2.48 0.600957
2.49 0.580129
2.5 0.546955
2.51 0.501542
2.52 0.446301
2.53 0.381382
2.54 0.309316
2.55 0.23161
2.56 0.150112
2.57 0.0670744
2.58 -0.0154331
2.59 -0.0953209
2.6 -0.170553
2.61 -0.238789
2.62 -0.299064
2.63 -0.348361
2.64 -0.386667
2.65 -0.412356
2.66 -0.424416
2.67 -0.423722
2.68 -0.408217
2.69 -0.380339
2.7 -0.339883
2.71 -0.288072
2.72 -0.227052
2.73 -0.157333
2.74 -0.0820723
2.75 -0.00280804
2.76 0.0780247
2.77 0.158354
2.78 0.235635
2.79 0.308317
2.8 0.374118
2.81 0.431583
2.82 0.479927
2.83 0.516995
2.84 0.543731
2.85 0.558832
2.86 0.563123
2.87 0.557419
2.88 0.541756
2.89 0.518503
2.9 0.488257
2.91 0.453178
2.92 0.414883
2.93 0.37507
2.94 0.335495
2.95 0.297855
2.96 0.263428
2.97 0.233306
2.98 0.208735
2.99 0.189618
3 0.176943
3.01 0.169948
3.02 0.168373
3.03 0.171641
3.04 0.178359
3.05 0.18771
3.06 0.198027
3.07 0.208008
3.08 0.216059
3.09 0.22112
3.1 0.221306
3.11 0.216174
3.12 0.204582
3.13 0.185847
3.14 0.160333
3.15 0.126965
3.16 0.087226
3.17 0.0412074
3.18 -0.0100564
3.19 -0.0651886
3.2 -0.123274
3.21 -0.182506
3.22 -0.241551
3.23 -0.298849
3.24 -0.353255
3.25 -0.402965
3.26 -0.447597
3.27 -0.485797
3.28 -0.517236
3.29 -0.541908
3.3 -0.559061
3.31 -0.56993
3.32 -0.574357
3.33 -0.57352
3.34 -0.568387
3.35 -0.55977
3.36 -0.549165
3.37 -0.537534
3.38 -0.526102
3.39 -0.515786
3.4 -0.507608
3.41 -0.501915
3.42 -0.499457
3.43 -0.500084
3.44 -0.503726
3.45 -0.51011
3.46 -0.518362
3.47 -0.527814
3.48 -0.537279
3.49 -0.545669
3.5 -0.551571
3.51 -0.554097
3.52 -0.551398
3.53 -0.542995
3.54 -0.527701
3.55 -0.504575
3.56 -0.473891
3.57 -0.43421
3.58 -0.386843
3.59 -0.331616
3.6 -0.26925
3.61 -0.201163
3.62 -0.127792
3.63 -0.0512794
3.64 0.0271655
3.65 0.10575
3.66 0.182977
3.67 0.256762
3.68 0.326062
3.69 0.389019
3.7 0.444486
3.71 0.491882
3.72 0.5293
3.73 0.557547
3.74 0.575375
3.75 0.583287
3.76 0.581817
3.77 0.570543
3.78 0.55134
3.79 0.524163
3.8 0.490549
3.81 0.451543
3.82 0.407921
3.83 0.361244
3.84 0.312232
3.85 0.262087
3.86 0.211616
3.87 0.161653
3.88 0.112734
3.89 0.0655483
3.9 0.0203286
3.91 -0.0226252
3.92 -0.0630036
3.93 -0.100977
3.94 -0.136142
3.95 -0.16879
3.96 -0.198802
3.97 -0.226067
3.98 -0.25079
3.99 -0.272467
4 -0.291325
4.01 -0.307
4.02 -0.319174
4.03 -0.327897
4.04 -0.332253
4.05 -0.332555
4.06 -0.328205
4.07 -0.318965
4.08 -0.305047
4.09 -0.285637
4.1 -0.261561
4.11 -0.232548
4.12 -0.199032
4.13 -0.161668
4.14 -0.120605
4.15 -0.0770358
4.16 -0.031526
4.17 0.014878
4.18 0.0612646
4.19 0.106495
4.2 0.149775
4.21 0.189924
4.22 0.226201
4.23 0.258012
4.24 0.284237
4.25 0.305143
4.26 0.319822
4.27 0.328651
4.28 0.331787
4.29 0.329155
4.3 0.321881
4.31 0.31006
4.32 0.294893
4.33 0.277147
4.34 0.257704
4.35 0.237611
4.36 0.217768
4.37 0.199019
4.38 0.182098
4.39 0.167766
4.4 0.156189
4.41 0.148099
4.42 0.143198
4.43 0.141572
4.44 0.14303
4.45 0.146927
4.46 0.153038
4.47 0.160424
4.48 0.168482
4.49 0.17639
4.5 0.183492
4.51 0.188825
4.52 0.192015
4.53 0.192361
4.54 0.189455
4.55 0.183292
4.56 0.173291
4.57 0.160074
4.58 0.143581
4.59 0.124343
4.6 0.102991
4.61 0.0800148
4.62 0.0563565
4.63 0.0327565
4.64 0.0100933
4.65 -0.0109266
4.66 -0.0292526
4.67 -0.0445706
4.68 -0.055935
4.69 -0.063106
4.7 -0.0658641
4.71 -0.0636309
4.72 -0.0569912
4.73 -0.0455418
4.74 -0.0299403
4.75 -0.0105445
4.76 0.0123589
4.77 0.0378535
4.78 0.0656298
4.79 0.0948275
4.8 0.124899
4.81 0.155239
4.82 0.18534
4.83 0.214676
4.84 0.242969
4.85 0.269934
4.86 0.295351
4.87 0.319312
4.88 0.341622
4.89 0.362586
4.9 0.382276
4.91 0.400881
4.92 0.41868
4.93 0.435771
4.94 0.452418
4.95 0.468702
4.96 0.484682
4.97 0.500362
4.98 0.515573
4.99 0.530188
5 0.543879
5.01 0.556278
5.02 0.567087
5.03 0.575547
5.04 0.581501
5.05 0.5842
5.06 0.583241
5.07 0.578388
5.08 0.568749
5.09 0.554672
5.1 0.53548
5.11 0.511359
5.12 0.482484
5.13 0.448578
5.14 0.410542
5.15 0.368315
5.16 0.322719
5.17 0.274335
5.18 0.223688
5.19 0.171701
5.2 0.11897
5.21 0.0663039
5.22 0.014338
5.23 -0.0361715
5.24 -0.0848645
5.25 -0.130978
5.26 -0.174383
5.27 -0.214756
5.28 -0.251782
5.29 -0.285747
5.3 -0.316248
5.31 -0.343811
5.32 -0.368488
5.33 -0.390479
5.34 -0.410291
5.35 -0.427922
5.36 -0.443949
5.37 -0.458529
5.38 -0.471904
5.39 -0.48434
5.4 -0.495823
5.41 -0.506547
5.42 -0.516439
5.43 -0.525427
5.44 -0.533459
5.45 -0.540192
5.46 -0.545606
5.47 -0.549354
5.48 -0.551232
5.49 -0.551151
5.5 -0.548645
5.51 -0.543911
5.52 -0.536641
5.53 -0.526931
5.54 -0.514928
5.55 -0.500539
5.56 -0.484277
5.57 -0.466225
5.58 -0.446857
5.59 -0.426567
5.6 -0.405767
5.61 -0.384951
5.62 -0.364602
5.63 -0.345158
5.64 -0.327005
5.65 -0.310661
5.66 -0.296219
5.67 -0.284193
5.68 -0.274545
5.69 -0.267396
5.7 -0.262894
5.71 -0.260694
5.72 -0.260961
5.73 -0.26322
5.74 -0.267287
5.75 -0.272888
5.76 -0.279564
5.77 -0.287084
5.78 -0.294985
5.79 -0.302962
5.8 -0.31066
5.81 -0.31784
5.82 -0.32413
5.83 -0.329435
5.84 -0.333522
5.85 -0.336244
5.86 -0.337631
5.87 -0.337396
5.88 -0.335746
5.89 -0.332541
5.9 -0.327804
5.91 -0.321638
5.92 -0.313839
5.93 -0.30463
5.94 -0.293857
5.95 -0.28154
5.96 -0.26772
5.97 -0.252161
5.98 -0.23505
5.99 -0.216179
6 -0.195606
6.01 -0.173381
6.02 -0.149367
6.03 -0.12386
6.04 -0.0968122
6.05 -0.0685164
6.06 -0.0392109
6.07 -0.00915529
6.08 0.0212183
6.09 0.0515049
6.1 0.0812231
6.11 0.109905
6.12 0.136895
6.13 0.161893
6.14 0.184084
6.15 0.203253
6.16 0.218947
6.17 0.230626
6.18 0.238487
6.19 0.241839
6.2 0.241186
6.21 0.236487
6.22 0.227917
6.23 0.216206
6.24 0.201466
6.25 0.184729
6.26 0.166584
6.27 0.14791
6.28 0.129526
6.29 0.1125
6.3 0.0975153
6.31 0.0855394
6.32 0.0773951
6.33 0.073393
6.34 0.074797
6.35 0.0812126
6.36 0.0933176
6.37 0.111032
6.38 0.133902
6.39 0.162242
6.4 0.194807
6.41 0.231348
6.42 0.270828
6.43 0.312272
6.44 0.354718
6.45 0.396983
6.46 0.437897
6.47 0.476354
6.48 0.511435
6.49 0.541692
6.5 0.566886
6.51 0.585638
6.52 0.597798
6.53 0.603036
6.54 0.600574
6.55 0.591277
6.56 0.574436
6.57 0.551067
6.58 0.521566
6.59 0.486308
6.6 0.446626
6.61 0.402851
6.62 0.356361
6.63 0.307975
6.64 0.258689
6.65 0.209445
6.66 0.161224
6.67 0.114715
6.68 0.0706592
6.69 0.0297553
6.7 -0.00787818
6.71 -0.0413593
6.72 -0.0710497
6.73 -0.0966331
6.74 -0.118145
6.75 -0.136066
6.76 -0.150082
6.77 -0.161079
6.78 -0.169148
6.79 -0.174747
6.8 -0.178399
6.81 -0.180272
6.82 -0.180968
6.83 -0.180695
6.84 -0.179773
6.85 -0.178428
6.86 -0.176786
6.87 -0.174974
6.88 -0.173013
6.89 -0.170894
6.9 -0.168572
6.91 -0.16593
6.92 -0.162912
6.93 -0.159366
6.94 -0.155223
6.95 -0.150422
6.96 -0.144853
6.97 -0.138604
6.98 -0.131631
6.99 -0.124081
7 -0.116079
7.01 -0.107796
7.02 -0.0994677
7.03 -0.0913553
7.04 -0.0837172
7.05 -0.0768207
7.06 -0.0710066
7.07 -0.0663918
7.08 -0.0633863
7.09 -0.0619898
7.1 -0.0623703
7.11 -0.0646416
7.12 -0.0686
7.13 -0.0743913
7.14 -0.0816115
7.15 -0.0901056
7.16 -0.0995491
7.17 -0.109527
7.18 -0.119652
7.19 -0.129458
7.2 -0.138479
7.21 -0.146214
7.22 -0.152371
7.23 -0.156234
7.24 -0.157787
7.25 -0.156543
7.26 -0.152325
7.27 -0.145206
7.28 -0.134745
7.29 -0.121469
7.3 -0.105253
7.31 -0.0864698
7.32 -0.0655306
7.33 -0.0426403
7.34 -0.0184982
7.35 0.00651726
7.36 0.0317948
7.37 0.0568329
7.38 0.0809995
7.39 0.10392
7.4 0.12496
7.41 0.143814
7.42 0.160186
7.43 0.173573
7.44 0.184151
7.45 0.191462
7.46 0.195771
7.47 0.197128
7.48 0.195525
7.49 0.1915
7.5 0.185037
7.51 0.176732
7.52 0.16689
7.53 0.155893
7.54 0.144231
7.55 0.132256
7.56 0.120397
7.57 0.108996
7.58 0.0984184
7.59 0.0888297
7.6 0.0806302
7.61 0.0738005
7.62 0.0685254
7.63 0.0648696
7.64 0.0626874
7.65 0.0621555
7.66 0.0629342
7.67 0.0649986
7.68 0.0681566
7.69 0.0721622
7.7 0.0769102
7.71 0.0820909
7.72 0.0875407
7.73 0.0930351
7.74 0.0983993
7.75 0.103412
7.76 0.107964
7.77 0.111862
7.78 0.114997
7.79 0.117295
7.8 0.11855
7.81 0.118814
7.82 0.117898
7.83 0.115799
7.84 0.112483
7.85 0.107775
7.86 0.101794
7.87 0.0943356
7.88 0.085467
7.89 0.075161
7.9 0.0632866
7.91 0.0500135
7.92 0.0351673
7.93 0.0189203
7.94 0.00130128
7.95 -0.0176737
7.96 -0.0377578
7.97 -0.0589493
7.98 -0.0809498
7.99 -0.103591
8 -0.126632
8.01 -0.149795
8.02 -0.172782
8.03 -0.195313
8.04 -0.217074
8.05 -0.237719
8.06 -0.257088
8.07 -0.27467
8.08 -0.290468
8.09 -0.304161
8.1 -0.315571
8.11 -0.324791
8.12 -0.331405
8.13 -0.335803
8.14 -0.337853
8.15 -0.337723
8.16 -0.335709
8.17 -0.331794
8.18 -0.326491
8.19 -0.319943
8.2 -0.312506
8.21 -0.304489
8.22 -0.29615
8.23 -0.287782
8.24 -0.279609
8.25 -0.271813
8.26 -0.264494
8.27 -0.257771
8.28 -0.251563
8.29 -0.245854
8.3 -0.240463
8.31 -0.235202
8.32 -0.22979
8.33 -0.223963
8.34 -0.217317
8.35 -0.209553
8.36 -0.200338
8.37 -0.189197
8.38 -0.176057
8.39 -0.160365
8.4 -0.142159
8.41 -0.121261
8.42 -0.0974908
8.43 -0.0711836
8.44 -0.0421234
8.45 -0.0108535
8.46 0.0224144
8.47 0.0572933
8.48 0.0932005
8.49 0.129692
8.5 0.166111
8.51 0.201879
8.52 0.236317
8.53 0.269012
8.54 0.299035
8.55 0.32626
8.56 0.350045
8.57 0.370024
8.58 0.386249
8.59 0.397968
8.6 0.405789
8.61 0.409424
8.62 0.409159
8.63 0.405471
8.64 0.398327
8.65 0.388634
8.66 0.376645
8.67 0.363038
8.68 0.348395
8.69 0.333256
8.7 0.318213
8.71 0.303802
8.72 0.290472
8.73 0.278547
8.74 0.2685
8.75 0.26029
8.76 0.254242
8.77 0.250196
8.78 0.248044
8.79 0.247703
8.8 0.248695
8.81 0.250807
8.82 0.253503
8.83 0.256359
8.84 0.258839
8.85 0.260533
8.86 0.260814
8.87 0.259378
8.88 0.255809
8.89 0.249664
8.9 0.240981
8.91 0.229215
8.92 0.214676
8.93 0.197272
8.94 0.177093
8.95 0.154609
8.96 0.129823
8.97 0.103445
8.98 0.0758132
8.99 0.0474834
9 0.0190003
9.01 -0.00901018
9.02 -0.0360626
9.03 -0.0615509
9.04 -0.084944
9.05 -0.105977
9.06 -0.123852
9.07 -0.138706
9.08 -0.150019
9.09 -0.157734
9.1 -0.161985
9.11 -0.162375
9.12 -0.159539
9.13 -0.153346
9.14 -0.144244
9.15 -0.132643
9.16 -0.118727
9.17 -0.103201
9.18 -0.0863576
9.19 -0.0687755
9.2 -0.0508991
9.21 -0.0332207
9.22 -0.0161216
9.23 -8.77375e-05
9.24 0.0146007
9.25 0.0276709
9.26 0.0387447
9.27 0.0478849
9.28 0.0547156
9.29 0.059403
9.3 0.0619173
9.31 0.0622208
9.32 0.0606506
9.33 0.0571123
9.34 0.0520152
9.35 0.0455036
9.36 0.0377868
9.37 0.0291961
9.38 0.0198623
9.39 0.0101034
9.4 9.04258e-05
9.41 -0.00998119
9.42 -0.0199706
9.43 -0.029729
9.44 -0.0392063
9.45 -0.0483368
9.46 -0.057108
9.47 -0.0655655
9.48 -0.0737159
9.49 -0.0816755
9.5 -0.0895152
9.51 -0.0973465
9.52 -0.105264
9.53 -0.113396
9.54 -0.121801
9.55 -0.130576
9.56 -0.139762
9.57 -0.149357
9.58 -0.159393
9.59 -0.169765
9.6 -0.180418
9.61 -0.191205
9.62 -0.201978
9.63 -0.212517
9.64 -0.222646
9.65 -0.23207
9.66 -0.240576
9.67 -0.247939
9.68 -0.25379
9.69 -0.25809
9.7 -0.26042
9.71 -0.260768
9.72 -0.258997
9.73 -0.254881
9.74 -0.248654
9.75 -0.240059
9.76 -0.229429
9.77 -0.216854
9.78 -0.202484
9.79 -0.186744
9.8 -0.169781
9.81 -0.152099
9.82 -0.13403
9.83 -0.116012
9.84 -0.0984127
9.85 -0.0817607
9.86 -0.0663271
9.87 -0.0525368
9.88 -0.04076
9.89 -0.0310676
9.9 -0.0240518
9.91 -0.0194728
9.92 -0.0176087
9.93 -0.0184455
9.94 -0.0217345
9.95 -0.0276903
9.96 -0.0357389
9.97 -0.045825
9.98 -0.0575673
9.99 -0.0705663
10 -0.0845582
10.01 -0.0990331
10.02 -0.113647
10.03 -0.127983
10.04 -0.14172
10.05 -0.154409
10.06 -0.165899
10.07 -0.175796
10.08 -0.183977
10.09 -0.19034
10.1 -0.194607
10.11 -0.19699
10.12 -0.197265
10.13 -0.19564
10.14 -0.192204
10.15 -0.186956
10.16 -0.180237
10.17 -0.172022
10.18 -0.162619
10.19 -0.152162
10.2 -0.14077
10.21 -0.128677
10.22 -0.115924
10.23 -0.102692
10.24 -0.0890471
10.25 -0.0750498
10.26 -0.0607793
10.27 -0.0462328
10.28 -0.0314667
10.29 -0.0164857
10.3 -0.00130363
10.31 0.0140421
10.32 0.0295419
10.33 0.0451282
10.34 0.0607454
10.35 0.0763004
10.36 0.0917037
10.37 0.106783
10.38 0.121442
10.39 0.135485
10.4 0.148735
10.41 0.161086
10.42 0.172213
10.43 0.182128
10.44 0.190572
10.45 0.197467
10.46 0.202811
10.47 0.206365
10.48 0.208365
10.49 0.208694
10.5 0.207532
10.51 0.205053
10.52 0.20133
10.53 0.19673
10.54 0.191412
10.55 0.185714
10.56 0.179901
10.57 0.174292
10.58 0.169121
10.59 0.164713
10.6 0.161236
10.61 0.158862
10.62 0.157803
10.63 0.157979
10.64 0.159562
10.65 0.162353
10.66 0.166265
10.67 0.171143
10.68 0.176668
10.69 0.182615
10.7 0.188606
10.71 0.194309
10.72 0.199315
10.73 0.203363
10.74 0.205917
10.75 0.206847
10.76 0.205796
10.77 0.202495
10.78 0.197002
10.79 0.188856
10.8 0.178424
10.81 0.165588
10.82 0.150514
10.83 0.133557
10.84 0.11475
10.85 0.0946905
10.86 0.0736413
10.87 0.0520776
10.88 0.0304257
10.89 0.00919039
10.9 -0.0112551
10.91 -0.0304069
10.92 -0.0478958
10.93 -0.0634746
10.94 -0.0765859
10.95 -0.0873246
10.96 -0.0952549
10.97 -0.100424
10.98 -0.102868
10.99 -0.102362
11 -0.099359
11.01 -0.0937192
11.02 -0.0858431
11.03 -0.075968
11.04 -0.0642507
11.05 -0.05118
11.06 -0.0369108
11.07 -0.0218717
11.08 -0.00633925
11.09 0.00938467
11.1 0.0250247
11.11 0.0402933
11.12 0.0549961
11.13 0.0689302
11.14 0.0818748
11.15 0.0937994
11.16 0.104424
11.17 0.113807
11.18 0.121819
11.19 0.128368
11.2 0.13355
11.21 0.137113
11.22 0.139247
11.23 0.139838
11.24 0.138861
11.25 0.13644
11.26 0.132328
11.27 0.126775
11.28 0.119665
11.29 0.111036
11.3 0.101022
11.31 0.0894753
11.32 0.0766792
11.33 0.0626031
11.34 0.0474065
11.35 0.0312714
11.36 0.0142671
11.37 -0.00330828
11.38 -0.0213024
11.39 -0.0394509
11.4 -0.0575265
11.41 -0.0752303
11.42 -0.0923626
11.43 -0.108593
11.44 -0.123716
11.45 -0.137537
11.46 -0.149703
11.47 -0.160244
11.48 -0.168804
11.49 -0.175427
11.5 -0.180049
11.51 -0.18251
11.52 -0.183075
11.53 -0.181568
11.54 -0.178298
11.55 -0.173374
11.56 -0.166917
11.57 -0.159285
11.58 -0.150568
11.59 -0.14114
11.6 -0.131218
11.61 -0.12107
11.62 -0.110944
11.63 -0.101106
11.64 -0.0917363
11.65 -0.0830382
11.66 -0.0751954
11.67 -0.0682421
11.68 -0.0624223
11.69 -0.0576292
11.7 -0.0539545
11.71 -0.0513762
11.72 -0.0497644
11.73 -0.0491811
11.74 -0.0493753
11.75 -0.0502972
11.76 -0.0517836
11.77 -0.0536669
11.78 -0.0558246
11.79 -0.0580684
11.8 -0.0602557
11.81 -0.0622333
11.82 -0.0638888
11.83 -0.0650445
11.84 -0.0656633
11.85 -0.0655944
11.86 -0.0647956
11.87 -0.0632355
11.88 -0.0607947
11.89 -0.0575623
11.9 -0.0534403
11.91 -0.0485013
11.92 -0.0427776
11.93 -0.0362515
11.94 -0.0290667
11.95 -0.0212087
11.96 -0.0128136
11.97 -0.00395718
11.98 0.00528199
11.99 0.0147667
12 0.0244111
12.01 0.03408
12.02 0.043662
12.03 0.0530164
12.04 0.0620536
12.05 0.0705914
12.06 0.0785656
12.07 0.0858424
12.08 0.092285
12.09 0.0978836
12.1 0.10241
12.11 0.105933
12.12 0.108334
12.13 0.109562
12.14 0.109701
12.15 0.108571
12.16 0.106376
12.17 0.103068
12.18 0.0987182
12.19 0.0934693
12.2 0.0872917
12.21 0.0804203
12.22 0.0729029
12.23 0.0648881
12.24 0.0565166
12.25 0.0478882
12.26 0.0391582
12.27 0.0304357
12.28 0.0218384
12.29 0.0134522
12.3 0.00540008
12.31 -0.00229108
12.32 -0.00952088
12.33 -0.0162704
12.34 -0.0225227
12.35 -0.0282139
12.36 -0.0334081
12.37 -0.0380504
12.38 -0.0421955
12.39 -0.0458611
12.4 -0.049035
12.41 -0.0517921
12.42 -0.0540974
12.43 -0.0560064
12.44 -0.0575214
12.45 -0.0586239
12.46 -0.0593543
12.47 -0.0596494
12.48 -0.0595393
12.49 -0.0589918
12.5 -0.0579667
12.51 -0.0564909
12.52 -0.0544752
12.53 -0.0519706
12.54 -0.0489447
12.55 -0.0453911
12.56 -0.0413713
12.57 -0.0368443
12.58 -0.0319236
12.59 -0.0266387
12.6 -0.0210717
12.61 -0.0153252
12.62 -0.00948951
12.63 -0.00369057
12.64 0.00194976
12.65 0.00729667
12.66 0.0122552
12.67 0.0166278
12.68 0.0203832
12.69 0.0233583
12.7 0.0254842
12.71 0.0267401
12.72 0.0269686
12.73 0.0262878
12.74 0.0246095
12.75 0.0220225
12.76 0.0186145
12.77 0.0144081
12.78 0.00961762
12.79 0.00432418
12.8 -0.00126671
12.81 -0.00698618
12.82 -0.0126289
12.83 -0.0180191
12.84 -0.0229165
12.85 -0.0271609
12.86 -0.0305817
12.87 -0.0329394
12.88 -0.0342191
12.89 -0.0341487
12.9 -0.0327688
12.91 -0.0299988
