# xPDFsuite Configuration #
[PDF]
wavelength = 0.1
dataformat = QA
inputfile = B3_Bronze-3nm_ss_019.chi
backgroundfile = B3_Li-bkg_DD155_two_ss_att.chi
mode = xray
bgscale = 0.985
composition = Ti O2
outputtype = gr
qmaxinst = 23.5
qmin = 0.1
qmax = 23.0
rmax = 40.0
rmin = 0.0
rstep = 0.01
rpoly = 0.9

[Misc]
inputdir = E:/Beamtime/PETRA-III_September-2019/BeamData/processed/Run1/B3/integration_20210218/chi/chi_w_sigmas/chi_scaled
savedir = E:/Beamtime/PETRA-III_September-2019/BeamData/processed/Run1/B3/integration_20210218
backgroundfilefull = E:/Beamtime/PETRA-III_September-2019/BeamData/processed/Run1/B3/integration_20210218/chi/chi_w_sigmas/chi_scaled/B3_Li-bkg_DD155_two_ss_att.chi

#### start data
#S 1
#L r($\AA$)  G($\AA^{-2}$)
0 0
0.01 0.00591479
0.02 0.0115171
0.03 0.0164907
0.04 0.0205529
0.05 0.0235684
0.06 0.0251974
0.07 0.0255444
0.08 0.0244669
0.09 0.0220624
0.1 0.0185101
0.11 0.0138798
0.12 0.00855009
0.13 0.00273344
0.14 -0.00321852
0.15 -0.00901215
0.16 -0.0142766
0.17 -0.0188069
0.18 -0.0222665
0.19 -0.0245183
0.2 -0.0254645
0.21 -0.0249229
0.22 -0.0230858
0.23 -0.0198855
0.24 -0.0155912
0.25 -0.010402
0.26 -0.00455373
0.27 0.00160021
0.28 0.00775598
0.29 0.013578
0.3 0.0187691
0.31 0.0229782
0.32 0.0260849
0.33 0.0277221
0.34 0.0279167
0.35 0.0265543
0.36 0.0235842
0.37 0.0192226
0.38 0.0133996
0.39 0.00647615
0.4 -0.00140072
0.41 -0.00997322
0.42 -0.0189428
0.43 -0.0280664
0.44 -0.0370635
0.45 -0.0456929
0.46 -0.0537211
0.47 -0.0610327
0.48 -0.0673445
0.49 -0.0726922
0.5 -0.0769125
0.51 -0.0799699
0.52 -0.0819066
0.53 -0.0825422
0.54 -0.0820362
0.55 -0.0802464
0.56 -0.0771699
0.57 -0.0728041
0.58 -0.06689
0.59 -0.0595161
0.6 -0.0503786
0.61 -0.0393993
0.62 -0.0264767
0.63 -0.0112346
0.64 0.00617164
0.65 0.0261021
0.66 0.0484319
0.67 0.0731113
0.68 0.100198
0.69 0.129204
0.7 0.160026
0.71 0.192046
0.72 0.224758
0.73 0.257462
0.74 0.289464
0.75 0.319776
0.76 0.347673
0.77 0.37227
0.78 0.392462
0.79 0.407967
0.8 0.417316
0.81 0.420634
0.82 0.417259
0.83 0.406768
0.84 0.389814
0.85 0.365631
0.86 0.335597
0.87 0.299968
0.88 0.259636
0.89 0.215922
0.9 0.16962
0.91 0.122365
0.92 0.0753424
0.93 0.029967
0.94 -0.0127755
0.95 -0.0512047
0.96 -0.0850178
0.97 -0.11308
0.98 -0.135046
0.99 -0.151093
1 -0.160599
1.01 -0.164873
1.02 -0.164106
1.03 -0.159566
1.04 -0.152493
1.05 -0.14418
1.06 -0.136206
1.07 -0.13017
1.08 -0.127526
1.09 -0.12945
1.1 -0.137695
1.11 -0.152352
1.12 -0.174816
1.13 -0.204732
1.14 -0.24191
1.15 -0.286207
1.16 -0.335866
1.17 -0.39008
1.18 -0.446611
1.19 -0.503578
1.2 -0.558458
1.21 -0.609259
1.22 -0.652739
1.23 -0.68724
1.24 -0.710396
1.25 -0.719646
1.26 -0.714945
1.27 -0.692973
1.28 -0.655234
1.29 -0.600897
1.3 -0.530278
1.31 -0.445908
1.32 -0.347595
1.33 -0.239531
1.34 -0.123667
1.35 -0.00341643
1.36 0.11784
1.37 0.236141
1.38 0.348371
1.39 0.450606
1.4 0.539458
1.41 0.613185
1.42 0.66681
1.43 0.701298
1.44 0.713539
1.45 0.703622
1.46 0.672717
1.47 0.619199
1.48 0.54752
1.49 0.457899
1.5 0.354055
1.51 0.239259
1.52 0.116308
1.53 -0.0103025
1.54 -0.137145
1.55 -0.260351
1.56 -0.376791
1.57 -0.482331
1.58 -0.575708
1.59 -0.653063
1.6 -0.714001
1.61 -0.757525
1.62 -0.78208
1.63 -0.790022
1.64 -0.780056
1.65 -0.755372
1.66 -0.7174
1.67 -0.668017
1.68 -0.610699
1.69 -0.547232
1.7 -0.481045
1.71 -0.414476
1.72 -0.350179
1.73 -0.289846
1.74 -0.236045
1.75 -0.189252
1.76 -0.150668
1.77 -0.12076
1.78 -0.0986328
1.79 -0.0848488
1.8 -0.0771947
1.81 -0.0748242
1.82 -0.0759228
1.83 -0.0786158
1.84 -0.0809681
1.85 -0.0812
1.86 -0.0774166
1.87 -0.0680619
1.88 -0.0523553
1.89 -0.0284456
1.9 0.00298203
1.91 0.0426993
1.92 0.0899182
1.93 0.143541
1.94 0.202842
1.95 0.26551
1.96 0.329935
1.97 0.393737
1.98 0.454844
1.99 0.510358
2 0.558817
2.01 0.597163
2.02 0.624132
2.03 0.638343
2.04 0.637443
2.05 0.62244
2.06 0.591155
2.07 0.54515
2.08 0.484815
2.09 0.410485
2.1 0.325017
2.11 0.228852
2.12 0.125276
2.13 0.0162845
2.14 -0.0955406
2.15 -0.207552
2.16 -0.316894
2.17 -0.421326
2.18 -0.518367
2.19 -0.605462
2.2 -0.681823
2.21 -0.743961
2.22 -0.792517
2.23 -0.825728
2.24 -0.842934
2.25 -0.845341
2.26 -0.830704
2.27 -0.802059
2.28 -0.75899
2.29 -0.702849
2.3 -0.6357
2.31 -0.557674
2.32 -0.471926
2.33 -0.379464
2.34 -0.282464
2.35 -0.182847
2.36 -0.0824398
2.37 0.0168683
2.38 0.113154
2.39 0.20473
2.4 0.2903
2.41 0.367534
2.42 0.436219
2.43 0.494177
2.44 0.541025
2.45 0.576228
2.46 0.598103
2.47 0.607916
2.48 0.604058
2.49 0.587735
2.5 0.559297
2.51 0.51863
2.52 0.467944
2.53 0.407143
2.54 0.3386
2.55 0.263652
2.56 0.183954
2.57 0.101763
2.58 0.018945
2.59 -0.0623053
2.6 -0.13997
2.61 -0.211676
2.62 -0.276265
2.63 -0.330702
2.64 -0.374711
2.65 -0.406529
2.66 -0.424947
2.67 -0.430654
2.68 -0.421392
2.69 -0.399459
2.7 -0.364494
2.71 -0.317597
2.72 -0.260893
2.73 -0.194744
2.74 -0.122415
2.75 -0.0454179
2.76 0.0337284
2.77 0.112831
2.78 0.189271
2.79 0.261315
2.8 0.326555
2.81 0.383381
2.82 0.43089
2.83 0.466768
2.84 0.491914
2.85 0.504917
2.86 0.506597
2.87 0.497792
2.88 0.478539
2.89 0.451354
2.9 0.416914
2.91 0.377561
2.92 0.335074
2.93 0.291379
2.94 0.248385
2.95 0.208065
2.96 0.171837
2.97 0.140962
2.98 0.116916
2.99 0.0995684
3 0.0901517
3.01 0.0877827
3.02 0.0922138
3.03 0.102849
3.04 0.118048
3.05 0.136974
3.06 0.157627
3.07 0.178517
3.08 0.19778
3.09 0.214082
3.1 0.225231
3.11 0.230549
3.12 0.228623
3.13 0.21851
3.14 0.200495
3.15 0.173143
3.16 0.138046
3.17 0.0951308
3.18 0.0454395
3.19 -0.00950227
3.2 -0.0688801
3.21 -0.130545
3.22 -0.193101
3.23 -0.254746
3.24 -0.314093
3.25 -0.369152
3.26 -0.419263
3.27 -0.462867
3.28 -0.499418
3.29 -0.528762
3.3 -0.54993
3.31 -0.564138
3.32 -0.571081
3.33 -0.57196
3.34 -0.567768
3.35 -0.55931
3.36 -0.548258
3.37 -0.535624
3.38 -0.522823
3.39 -0.510915
3.4 -0.501089
3.41 -0.493849
3.42 -0.490121
3.43 -0.48987
3.44 -0.493133
3.45 -0.49976
3.46 -0.508854
3.47 -0.519846
3.48 -0.531451
3.49 -0.542544
3.5 -0.551631
3.51 -0.557662
3.52 -0.558674
3.53 -0.553992
3.54 -0.542263
3.55 -0.522341
3.56 -0.494375
3.57 -0.456657
3.58 -0.410452
3.59 -0.35541
3.6 -0.292146
3.61 -0.222111
3.62 -0.145543
3.63 -0.0647777
3.64 0.0190191
3.65 0.103947
3.66 0.188338
3.67 0.270059
3.68 0.347793
3.69 0.419545
3.7 0.483944
3.71 0.540216
3.72 0.586216
3.73 0.622606
3.74 0.647903
3.75 0.662473
3.76 0.666747
3.77 0.660077
3.78 0.644401
3.79 0.61949
3.8 0.586932
3.81 0.547792
3.82 0.502774
3.83 0.453639
3.84 0.40105
3.85 0.346395
3.86 0.290571
3.87 0.234489
3.88 0.17888
3.89 0.124491
3.9 0.0717321
3.91 0.0210074
3.92 -0.0272556
3.93 -0.0731166
3.94 -0.116062
3.95 -0.156301
3.96 -0.193631
3.97 -0.227847
3.98 -0.259132
3.99 -0.286854
4 -0.311252
4.01 -0.331887
4.02 -0.348385
4.03 -0.360819
4.04 -0.36813
4.05 -0.370707
4.06 -0.367871
4.07 -0.35936
4.08 -0.345427
4.09 -0.325129
4.1 -0.299411
4.11 -0.267934
4.12 -0.231164
4.13 -0.189823
4.14 -0.144004
4.15 -0.0950521
4.16 -0.0435343
4.17 0.00939711
4.18 0.0627278
4.19 0.115249
4.2 0.166012
4.21 0.21373
4.22 0.257517
4.23 0.296656
4.24 0.329851
4.25 0.357282
4.26 0.37785
4.27 0.391845
4.28 0.399322
4.29 0.400027
4.3 0.395126
4.31 0.384517
4.32 0.369457
4.33 0.350681
4.34 0.329004
4.35 0.305626
4.36 0.281352
4.37 0.257215
4.38 0.234004
4.39 0.212562
4.4 0.193247
4.41 0.176849
4.42 0.163281
4.43 0.152755
4.44 0.145239
4.45 0.140229
4.46 0.137674
4.47 0.136739
4.48 0.136965
4.49 0.137653
4.5 0.138181
4.51 0.137784
4.52 0.136026
4.53 0.132311
4.54 0.126248
4.55 0.117774
4.56 0.106419
4.57 0.0926429
4.58 0.0764187
4.59 0.0581952
4.6 0.0385067
4.61 0.0178419
4.62 -0.00302069
4.63 -0.0233726
4.64 -0.0424451
4.65 -0.0596189
4.66 -0.0739083
4.67 -0.0850966
4.68 -0.0923016
4.69 -0.095355
4.7 -0.0940911
4.71 -0.0879995
4.72 -0.0776886
4.73 -0.0628198
4.74 -0.0440659
4.75 -0.0218107
4.76 0.00361251
4.77 0.0313075
4.78 0.0609048
4.79 0.0915652
4.8 0.122723
4.81 0.153741
4.82 0.184146
4.83 0.21335
4.84 0.241112
4.85 0.26713
4.86 0.291165
4.87 0.313349
4.88 0.333432
4.89 0.351784
4.9 0.368466
4.91 0.383685
4.92 0.39778
4.93 0.410838
4.94 0.423216
4.95 0.435028
4.96 0.446402
4.97 0.457418
4.98 0.467984
4.99 0.478057
5 0.487401
5.01 0.495744
5.02 0.502849
5.03 0.508108
5.04 0.511374
5.05 0.512023
5.06 0.509698
5.07 0.504181
5.08 0.494706
5.09 0.481532
5.1 0.464069
5.11 0.442446
5.12 0.416792
5.13 0.386846
5.14 0.35336
5.15 0.316264
5.16 0.276251
5.17 0.23381
5.18 0.189381
5.19 0.143761
5.2 0.0974573
5.21 0.051175
5.22 0.00546894
5.23 -0.0389984
5.24 -0.0819013
5.25 -0.122563
5.26 -0.160853
5.27 -0.196472
5.28 -0.229119
5.29 -0.259027
5.3 -0.285808
5.31 -0.309905
5.32 -0.33134
5.33 -0.350257
5.34 -0.367099
5.35 -0.381821
5.36 -0.394947
5.37 -0.406599
5.38 -0.416992
5.39 -0.426388
5.4 -0.434773
5.41 -0.442371
5.42 -0.449146
5.43 -0.455088
5.44 -0.460204
5.45 -0.464263
5.46 -0.467299
5.47 -0.469085
5.48 -0.469509
5.49 -0.468534
5.5 -0.46586
5.51 -0.461649
5.52 -0.455713
5.53 -0.448144
5.54 -0.439063
5.55 -0.42844
5.56 -0.416633
5.57 -0.403729
5.58 -0.39006
5.59 -0.3759
5.6 -0.361544
5.61 -0.347309
5.62 -0.333528
5.63 -0.320471
5.64 -0.308378
5.65 -0.297575
5.66 -0.288087
5.67 -0.280229
5.68 -0.27394
5.69 -0.269267
5.7 -0.266275
5.71 -0.264719
5.72 -0.264676
5.73 -0.265832
5.74 -0.268062
5.75 -0.27119
5.76 -0.274942
5.77 -0.279184
5.78 -0.283656
5.79 -0.288198
5.8 -0.292627
5.81 -0.296825
5.82 -0.300612
5.83 -0.303945
5.84 -0.306711
5.85 -0.308834
5.86 -0.310313
5.87 -0.310981
5.88 -0.3109
5.89 -0.309941
5.9 -0.308034
5.91 -0.30516
5.92 -0.301054
5.93 -0.295767
5.94 -0.289043
5.95 -0.280768
5.96 -0.270875
5.97 -0.258996
5.98 -0.245263
5.99 -0.229364
6 -0.211325
6.01 -0.191182
6.02 -0.168749
6.03 -0.144397
6.04 -0.11807
6.05 -0.0901423
6.06 -0.0609184
6.07 -0.0307187
6.08 -7.62845e-05
6.09 0.0305352
6.1 0.0605517
6.11 0.0894431
6.12 0.116486
6.13 0.141361
6.14 0.163201
6.15 0.181807
6.16 0.19673
6.17 0.207449
6.18 0.214214
6.19 0.216371
6.2 0.214495
6.21 0.2086
6.22 0.19893
6.23 0.186257
6.24 0.170769
6.25 0.15351
6.26 0.135101
6.27 0.116437
6.28 0.0983035
6.29 0.0817797
6.3 0.067472
6.31 0.0563109
6.32 0.0490483
6.33 0.0459267
6.34 0.0481248
6.35 0.0551902
6.36 0.0677228
6.37 0.0855878
6.38 0.108311
6.39 0.13614
6.4 0.167876
6.41 0.203255
6.42 0.241296
6.43 0.281089
6.44 0.321738
6.45 0.362167
6.46 0.40131
6.47 0.438175
6.48 0.471942
6.49 0.501313
6.5 0.526087
6.51 0.545025
6.52 0.557999
6.53 0.564708
6.54 0.564432
6.55 0.557934
6.56 0.544529
6.57 0.525092
6.58 0.499927
6.59 0.469283
6.6 0.434328
6.61 0.395234
6.62 0.353212
6.63 0.308924
6.64 0.263177
6.65 0.216844
6.66 0.170686
6.67 0.125405
6.68 0.0816534
6.69 0.0400905
6.7 0.000944136
6.71 -0.0349691
6.72 -0.0677907
6.73 -0.0971262
6.74 -0.12284
6.75 -0.145216
6.76 -0.163755
6.77 -0.179135
6.78 -0.19124
6.79 -0.200326
6.8 -0.206803
6.81 -0.210572
6.82 -0.212259
6.83 -0.211911
6.84 -0.209842
6.85 -0.206341
6.86 -0.201463
6.87 -0.195568
6.88 -0.188715
6.89 -0.1811
6.9 -0.172864
6.91 -0.164069
6.92 -0.154884
6.93 -0.145364
6.94 -0.135631
6.95 -0.125776
6.96 -0.115903
6.97 -0.106116
6.98 -0.0965475
6.99 -0.0873083
7 -0.0785182
7.01 -0.0703582
7.02 -0.0628818
7.03 -0.0563199
7.04 -0.0507132
7.05 -0.0461813
7.06 -0.0428807
7.07 -0.0407441
7.08 -0.0399805
7.09 -0.0404478
7.1 -0.0421662
7.11 -0.0451066
7.12 -0.0490592
7.13 -0.0540234
7.14 -0.0596994
7.15 -0.065933
7.16 -0.0724794
7.17 -0.079086
7.18 -0.0854583
7.19 -0.0913562
7.2 -0.0964823
7.21 -0.10055
7.22 -0.10342
7.23 -0.104647
7.24 -0.104281
7.25 -0.102028
7.26 -0.097803
7.27 -0.0916706
7.28 -0.083351
7.29 -0.0731835
7.3 -0.0610733
7.31 -0.0472382
7.32 -0.0319221
7.33 -0.0152097
7.34 0.00246163
7.35 0.0208959
7.36 0.0397158
7.37 0.0586074
7.38 0.0771919
7.39 0.0951873
7.4 0.112185
7.41 0.127927
7.42 0.142169
7.43 0.154506
7.44 0.164966
7.45 0.173132
7.46 0.179075
7.47 0.182714
7.48 0.183888
7.49 0.182898
7.5 0.17954
7.51 0.174188
7.52 0.166952
7.53 0.157989
7.54 0.147699
7.55 0.136192
7.56 0.123906
7.57 0.111095
7.58 0.0980874
7.59 0.085178
7.6 0.0727177
7.61 0.0609288
7.62 0.0500978
7.63 0.0404817
7.64 0.0321472
7.65 0.0254831
7.66 0.0203581
7.67 0.0169653
7.68 0.0153163
7.69 0.0152689
7.7 0.0169899
7.71 0.0201238
7.72 0.0246607
7.73 0.0303716
7.74 0.0370036
7.75 0.0444063
7.76 0.0522281
7.77 0.0602412
7.78 0.0681408
7.79 0.075678
7.8 0.0824987
7.81 0.0884426
7.82 0.0931569
7.83 0.096475
7.84 0.0982433
7.85 0.0981296
7.86 0.0962371
7.87 0.0922508
7.88 0.0862709
7.89 0.0782919
7.9 0.0682017
7.91 0.0563079
7.92 0.0424949
7.93 0.0270931
7.94 0.0102517
7.95 -0.00786454
7.96 -0.0268957
7.97 -0.0466803
7.98 -0.0668511
7.99 -0.0871495
8 -0.107257
8.01 -0.126932
8.02 -0.145804
8.03 -0.163713
8.04 -0.180389
8.05 -0.195589
8.06 -0.2093
8.07 -0.221143
8.08 -0.231294
8.09 -0.239597
8.1 -0.246059
8.11 -0.250879
8.12 -0.253899
8.13 -0.255516
8.14 -0.25577
8.15 -0.254893
8.16 -0.25315
8.17 -0.250678
8.18 -0.247801
8.19 -0.244699
8.2 -0.241601
8.21 -0.238671
8.22 -0.236099
8.23 -0.233941
8.24 -0.232303
8.25 -0.23117
8.26 -0.230488
8.27 -0.230193
8.28 -0.230091
8.29 -0.229999
8.3 -0.229656
8.31 -0.228808
8.32 -0.227062
8.33 -0.224218
8.34 -0.219791
8.35 -0.21357
8.36 -0.205271
8.37 -0.194456
8.38 -0.1812
8.39 -0.164998
8.4 -0.146039
8.41 -0.124242
8.42 -0.0995422
8.43 -0.0723711
8.44 -0.042625
8.45 -0.0109089
8.46 0.0224952
8.47 0.0571387
8.48 0.0924477
8.49 0.127911
8.5 0.162932
8.51 0.196932
8.52 0.229272
8.53 0.259609
8.54 0.287043
8.55 0.311545
8.56 0.332533
8.57 0.349716
8.58 0.363211
8.59 0.372351
8.6 0.377784
8.61 0.379289
8.62 0.377195
8.63 0.371994
8.64 0.363724
8.65 0.353256
8.66 0.340883
8.67 0.327266
8.68 0.312966
8.69 0.298539
8.7 0.28451
8.71 0.271422
8.72 0.259672
8.73 0.249549
8.74 0.241506
8.75 0.235441
8.76 0.231658
8.77 0.229947
8.78 0.230163
8.79 0.232184
8.8 0.235495
8.81 0.239837
8.82 0.244642
8.83 0.249452
8.84 0.253682
8.85 0.256912
8.86 0.258453
8.87 0.258
8.88 0.255108
8.89 0.2493
8.9 0.240638
8.91 0.228524
8.92 0.213314
8.93 0.194909
8.94 0.173415
8.95 0.149354
8.96 0.122732
8.97 0.094337
8.98 0.0645447
8.99 0.0339749
9 0.00323395
9.01 -0.0269794
9.02 -0.0561229
9.03 -0.0835186
9.04 -0.108573
9.05 -0.130988
9.06 -0.149876
9.07 -0.16539
9.08 -0.176954
9.09 -0.184515
9.1 -0.188233
9.11 -0.187685
9.12 -0.183595
9.13 -0.175847
9.14 -0.16497
9.15 -0.151445
9.16 -0.135531
9.17 -0.118024
9.18 -0.0993071
9.19 -0.0800444
9.2 -0.0607509
9.21 -0.0420256
9.22 -0.0242644
9.23 -0.00805196
9.24 0.00633512
9.25 0.0186099
9.26 0.0283648
9.27 0.0357437
9.28 0.0403577
9.29 0.0424795
9.3 0.0421448
9.31 0.0394042
9.32 0.0347092
9.33 0.0280748
9.34 0.0200237
9.35 0.010812
9.36 0.000778065
9.37 -0.0096932
9.38 -0.020307
9.39 -0.0307478
9.4 -0.0407613
9.41 -0.0501066
9.42 -0.0586998
9.43 -0.0663005
9.44 -0.0730026
9.45 -0.0787516
9.46 -0.0836235
9.47 -0.087791
9.48 -0.0913288
9.49 -0.0945207
9.5 -0.0975495
9.51 -0.100669
9.52 -0.104082
9.53 -0.108083
9.54 -0.112784
9.55 -0.118417
9.56 -0.12508
9.57 -0.132789
9.58 -0.141683
9.59 -0.151559
9.6 -0.16241
9.61 -0.174001
9.62 -0.186104
9.63 -0.198446
9.64 -0.210692
9.65 -0.222456
9.66 -0.233374
9.67 -0.243101
9.68 -0.251112
9.69 -0.257275
9.7 -0.261011
9.71 -0.262243
9.72 -0.260754
9.73 -0.256216
9.74 -0.248906
9.75 -0.238467
9.76 -0.225325
9.77 -0.209592
9.78 -0.191461
9.79 -0.171498
9.8 -0.149899
9.81 -0.127335
9.82 -0.104248
9.83 -0.0812192
9.84 -0.0587362
9.85 -0.03749
9.86 -0.017832
9.87 -0.000308475
9.88 0.0146131
9.89 0.0268555
9.9 0.035682
9.91 0.0414244
9.92 0.0437599
9.93 0.0427444
9.94 0.038722
9.95 0.0314812
9.96 0.0217634
9.97 0.00968969
9.98 -0.00423189
9.99 -0.0194897
10 -0.0357037
10.01 -0.0522694
10.02 -0.068738
10.03 -0.0846232
10.04 -0.0995653
10.05 -0.113038
10.06 -0.124935
10.07 -0.134835
10.08 -0.142681
10.09 -0.14843
10.1 -0.151872
10.11 -0.153334
10.12 -0.152694
10.13 -0.150284
10.14 -0.146297
10.15 -0.140884
10.16 -0.13444
10.17 -0.127101
10.18 -0.119199
10.19 -0.11093
10.2 -0.102489
10.21 -0.0940328
10.22 -0.0856786
10.23 -0.077479
10.24 -0.0694548
10.25 -0.0615841
10.26 -0.0537948
10.27 -0.0459955
10.28 -0.0380722
10.29 -0.0299005
10.3 -0.0213391
10.31 -0.0123222
10.32 -0.00267365
10.33 0.00758044
10.34 0.0185039
10.35 0.0300744
10.36 0.0421798
10.37 0.0547745
10.38 0.0676295
10.39 0.0805749
10.4 0.0933599
10.41 0.10577
10.42 0.117449
10.43 0.128246
10.44 0.13783
10.45 0.146005
10.46 0.152678
10.47 0.157517
10.48 0.160699
10.49 0.162043
10.5 0.161708
10.51 0.159865
10.52 0.156585
10.53 0.152294
10.54 0.147192
10.55 0.141698
10.56 0.136156
10.57 0.130988
10.58 0.126498
10.59 0.123132
10.6 0.121115
10.61 0.120678
10.62 0.122123
10.63 0.125327
10.64 0.130537
10.65 0.137472
10.66 0.146007
10.67 0.155927
10.68 0.166781
10.69 0.178256
10.7 0.189814
10.71 0.200995
10.72 0.211223
10.73 0.220134
10.74 0.226984
10.75 0.231596
10.76 0.23348
10.77 0.232277
10.78 0.228072
10.79 0.220256
10.8 0.209342
10.81 0.195193
10.82 0.178056
10.83 0.158431
10.84 0.136392
10.85 0.11275
10.86 0.0878749
10.87 0.0624049
10.88 0.0368981
10.89 0.012017
10.9 -0.0117833
10.91 -0.0338771
10.92 -0.0538409
10.93 -0.0714126
10.94 -0.0859725
10.95 -0.0977095
10.96 -0.106193
10.97 -0.111579
10.98 -0.114003
10.99 -0.113355
11 -0.11022
11.01 -0.104599
11.02 -0.097012
11.03 -0.087802
11.04 -0.0772639
11.05 -0.0658956
11.06 -0.0539665
11.07 -0.041862
11.08 -0.0298447
11.09 -0.0181871
11.1 -0.00702224
11.11 0.0034361
11.12 0.0131775
11.13 0.0221493
11.14 0.0303285
11.15 0.0378311
11.16 0.0446264
11.17 0.0508737
11.18 0.0566178
11.19 0.0619198
11.2 0.0668633
11.21 0.0714153
11.22 0.0756159
11.23 0.0793963
11.24 0.0826641
11.25 0.0853607
11.26 0.087225
11.27 0.0882165
11.28 0.0880881
11.29 0.0866601
11.3 0.0838706
11.31 0.0793535
11.32 0.0732439
11.33 0.0653237
11.34 0.0556315
11.35 0.0442996
11.36 0.0312483
11.37 0.0168793
11.38 0.00129699
11.39 -0.015124
11.4 -0.032038
11.41 -0.0490539
11.42 -0.0657623
11.43 -0.0816875
11.44 -0.0964307
11.45 -0.109643
11.46 -0.120774
11.47 -0.129779
11.48 -0.136131
11.49 -0.139857
11.5 -0.140873
11.51 -0.138991
11.52 -0.13462
11.53 -0.127621
11.54 -0.118507
11.55 -0.10755
11.56 -0.0950913
11.57 -0.0816889
11.58 -0.0677182
11.59 -0.053726
11.6 -0.0401506
11.61 -0.027495
11.62 -0.0160309
11.63 -0.00632143
11.64 0.00157791
11.65 0.00738305
11.66 0.010942
11.67 0.0124351
11.68 0.011602
11.69 0.00891119
11.7 0.00443149
11.71 -0.00153146
11.72 -0.00857376
11.73 -0.0164533
11.74 -0.024681
11.75 -0.0329243
11.76 -0.0407963
11.77 -0.0480264
11.78 -0.0541994
11.79 -0.0592386
11.8 -0.0628643
11.81 -0.0650173
11.82 -0.0657311
11.83 -0.0648696
11.84 -0.0627273
11.85 -0.0593117
11.86 -0.054888
11.87 -0.0496827
11.88 -0.0438881
11.89 -0.0378073
11.9 -0.0316508
11.91 -0.0256503
11.92 -0.019974
11.93 -0.0148133
11.94 -0.0102014
11.95 -0.00626198
11.96 -0.00293841
11.97 -0.000190787
11.98 0.00204854
11.99 0.00395451
12 0.00565198
12.01 0.00734173
12.02 0.00919297
12.03 0.011408
12.04 0.0140938
12.05 0.0174628
12.06 0.0215295
12.07 0.0263695
12.08 0.032
12.09 0.0382974
12.1 0.0452443
12.11 0.0525979
12.12 0.0601921
12.13 0.0677696
12.14 0.0750988
12.15 0.0818195
12.16 0.0877435
12.17 0.0925464
12.18 0.0959715
12.19 0.0979294
12.2 0.0980103
12.21 0.0963734
12.22 0.0928083
12.23 0.0873781
12.24 0.0802531
12.25 0.0713716
12.26 0.061161
12.27 0.0497312
12.28 0.0374391
12.29 0.0246019
12.3 0.011537
12.31 -0.00140757
12.32 -0.0138859
12.33 -0.0256069
12.34 -0.0363417
12.35 -0.0457469
12.36 -0.0538224
12.37 -0.0602874
12.38 -0.0652066
12.39 -0.0685902
12.4 -0.0703982
12.41 -0.070918
12.42 -0.0701536
12.43 -0.0684251
12.44 -0.0659242
12.45 -0.062872
12.46 -0.0595446
12.47 -0.0561513
12.48 -0.0529097
12.49 -0.0499897
12.5 -0.0475565
12.51 -0.0456484
12.52 -0.0443981
12.53 -0.0437261
12.54 -0.0436203
12.55 -0.043997
12.56 -0.0447043
12.57 -0.045627
12.58 -0.0465701
12.59 -0.0473695
12.6 -0.0478397
12.61 -0.0478682
12.62 -0.0472296
12.63 -0.0459217
12.64 -0.0438243
12.65 -0.0409274
12.66 -0.0373042
12.67 -0.0329314
12.68 -0.0280238
12.69 -0.0226789
12.7 -0.0171061
12.71 -0.0115004
12.72 -0.00610625
12.73 -0.00110592
12.74 0.00324678
12.75 0.00678323
12.76 0.00938515
12.77 0.0108226
12.78 0.0111757
12.79 0.0103017
12.8 0.00832231
12.81 0.0053402
12.82 0.00144094
12.83 -0.00307926
12.84 -0.00804176
12.85 -0.0131225
12.86 -0.0180455
12.87 -0.0224526
