# xPDFsuite Configuration #
[PDF]
wavelength = 0.1
dataformat = QA
inputfile = B3_Bronze-3nm_ss_006.chi
backgroundfile = B3_Li-bkg_DD155_two_ss_att.chi
mode = xray
bgscale = 0.985
composition = Ti O2
outputtype = gr
qmaxinst = 23.5
qmin = 0.1
qmax = 23.0
rmax = 40.0
rmin = 0.0
rstep = 0.01
rpoly = 0.9

[Misc]
inputdir = E:/Beamtime/PETRA-III_September-2019/BeamData/processed/Run1/B3/integration_20210218/chi/chi_w_sigmas/chi_scaled
savedir = E:/Beamtime/PETRA-III_September-2019/BeamData/processed/Run1/B3/integration_20210218
backgroundfilefull = E:/Beamtime/PETRA-III_September-2019/BeamData/processed/Run1/B3/integration_20210218/chi/chi_w_sigmas/chi_scaled/B3_Li-bkg_DD155_two_ss_att.chi

#### start data
#S 1
#L r($\AA$)  G($\AA^{-2}$)
0 0
0.01 0.00475018
0.02 0.00924961
0.03 0.0132445
0.04 0.0165079
0.05 0.0189312
0.06 0.0202417
0.07 0.0205232
0.08 0.0196609
0.09 0.017733
0.1 0.0148833
0.11 0.0111674
0.12 0.00688914
0.13 0.00221898
0.14 -0.0025608
0.15 -0.00721431
0.16 -0.0114435
0.17 -0.0150835
0.18 -0.0178631
0.19 -0.0196713
0.2 -0.0204288
0.21 -0.0199875
0.22 -0.0185013
0.23 -0.0159138
0.24 -0.0124407
0.25 -0.00824131
0.26 -0.00350455
0.27 0.00148425
0.28 0.00648004
0.29 0.0112097
0.3 0.0154306
0.31 0.0188543
0.32 0.021378
0.33 0.0226954
0.34 0.0228203
0.35 0.021649
0.36 0.0191259
0.37 0.0154192
0.38 0.0104494
0.39 0.00450638
0.4 -0.00230539
0.41 -0.00978749
0.42 -0.0176927
0.43 -0.0258407
0.44 -0.0339825
0.45 -0.0419192
0.46 -0.0494419
0.47 -0.0564292
0.48 -0.0626223
0.49 -0.0680097
0.5 -0.072413
0.51 -0.0757509
0.52 -0.0780171
0.53 -0.0789788
0.54 -0.0787456
0.55 -0.0771221
0.56 -0.0740659
0.57 -0.0695542
0.58 -0.0632914
0.59 -0.0553945
0.6 -0.0455617
0.61 -0.0337653
0.62 -0.0199594
0.63 -0.00384475
0.64 0.014342
0.65 0.0348499
0.66 0.0574616
0.67 0.0820379
0.68 0.108499
0.69 0.136343
0.7 0.165328
0.71 0.194854
0.72 0.224397
0.73 0.253233
0.74 0.280791
0.75 0.306093
0.76 0.328589
0.77 0.347516
0.78 0.361941
0.79 0.371759
0.8 0.375731
0.81 0.374143
0.82 0.36654
0.83 0.352712
0.84 0.33337
0.85 0.308036
0.86 0.278017
0.87 0.243688
0.88 0.205953
0.89 0.165982
0.9 0.124653
0.91 0.0832864
0.92 0.0429756
0.93 0.00490299
0.94 -0.0301938
0.95 -0.0608657
0.96 -0.0870701
0.97 -0.107925
0.98 -0.123315
0.99 -0.133561
1 -0.138324
1.01 -0.138881
1.02 -0.135591
1.03 -0.129682
1.04 -0.122311
1.05 -0.114776
1.06 -0.108378
1.07 -0.104612
1.08 -0.104656
1.09 -0.109453
1.1 -0.120483
1.11 -0.137607
1.12 -0.161934
1.13 -0.192932
1.14 -0.230255
1.15 -0.273551
1.16 -0.321132
1.17 -0.372046
1.18 -0.424226
1.19 -0.47589
1.2 -0.524665
1.21 -0.568862
1.22 -0.605471
1.23 -0.633181
1.24 -0.649936
1.25 -0.653555
1.26 -0.644208
1.27 -0.619044
1.28 -0.579641
1.29 -0.52543
1.3 -0.456901
1.31 -0.376454
1.32 -0.284161
1.33 -0.183821
1.34 -0.0773322
1.35 0.0321671
1.36 0.141687
1.37 0.247529
1.38 0.347078
1.39 0.436797
1.4 0.51375
1.41 0.576514
1.42 0.620671
1.43 0.647284
1.44 0.65365
1.45 0.639982
1.46 0.607439
1.47 0.55466
1.48 0.485708
1.49 0.400851
1.5 0.30346
1.51 0.196485
1.52 0.0824725
1.53 -0.034578
1.54 -0.151566
1.55 -0.265037
1.56 -0.372184
1.57 -0.469253
1.58 -0.555111
1.59 -0.626198
1.6 -0.682101
1.61 -0.721824
1.62 -0.743784
1.63 -0.750033
1.64 -0.739114
1.65 -0.713806
1.66 -0.675193
1.67 -0.624695
1.68 -0.565456
1.69 -0.498705
1.7 -0.427654
1.71 -0.354292
1.72 -0.280971
1.73 -0.209487
1.74 -0.142071
1.75 -0.0796288
1.76 -0.0234669
1.77 0.0255725
1.78 0.0678237
1.79 0.102221
1.8 0.130246
1.81 0.152027
1.82 0.168552
1.83 0.181148
1.84 0.19053
1.85 0.198316
1.86 0.205468
1.87 0.213114
1.88 0.222008
1.89 0.233084
1.9 0.246448
1.91 0.262484
1.92 0.280962
1.93 0.301432
1.94 0.323394
1.95 0.34583
1.96 0.36773
1.97 0.387879
1.98 0.405179
1.99 0.417915
2 0.425482
2.01 0.426077
2.02 0.419163
2.03 0.404056
2.04 0.379494
2.05 0.346288
2.06 0.303301
2.07 0.251664
2.08 0.191791
2.09 0.124117
2.1 0.0504678
2.11 -0.0285907
2.12 -0.111003
2.13 -0.195376
2.14 -0.279916
2.15 -0.363042
2.16 -0.44264
2.17 -0.51744
2.18 -0.58573
2.19 -0.645776
2.2 -0.697198
2.21 -0.737416
2.22 -0.767053
2.23 -0.784785
2.24 -0.790098
2.25 -0.783885
2.26 -0.764296
2.27 -0.733589
2.28 -0.691288
2.29 -0.638287
2.3 -0.576103
2.31 -0.504604
2.32 -0.426276
2.33 -0.341774
2.34 -0.252818
2.35 -0.161003
2.36 -0.0677771
2.37 0.0251091
2.38 0.115975
2.39 0.203184
2.4 0.285428
2.41 0.360447
2.42 0.427806
2.43 0.485297
2.44 0.532322
2.45 0.568181
2.46 0.591037
2.47 0.60196
2.48 0.599199
2.49 0.583828
2.5 0.556105
2.51 0.515816
2.52 0.465171
2.53 0.404008
2.54 0.334738
2.55 0.258709
2.56 0.177577
2.57 0.0936537
2.58 0.0087727
2.59 -0.0748458
2.6 -0.155225
2.61 -0.23007
2.62 -0.298258
2.63 -0.356951
2.64 -0.40593
2.65 -0.443619
2.66 -0.469001
2.67 -0.482811
2.68 -0.483143
2.69 -0.472209
2.7 -0.449835
2.71 -0.417156
2.72 -0.37615
2.73 -0.32731
2.74 -0.273506
2.75 -0.216128
2.76 -0.157342
2.77 -0.0989583
2.78 -0.0431503
2.79 0.00880078
2.8 0.0550469
2.81 0.094495
2.82 0.12663
2.83 0.149928
2.84 0.165338
2.85 0.172129
2.86 0.171235
2.87 0.163558
2.88 0.149587
2.89 0.131274
2.9 0.10955
2.91 0.0861981
2.92 0.062607
2.93 0.0403899
2.94 0.0206294
2.95 0.00486305
2.96 -0.00627953
2.97 -0.0121464
2.98 -0.0119905
2.99 -0.00640942
3 0.00507731
3.01 0.0213298
3.02 0.0417233
3.03 0.0652979
3.04 0.0906334
3.05 0.116523
3.06 0.141497
3.07 0.164213
3.08 0.183163
3.09 0.197633
3.1 0.205795
3.11 0.207688
3.12 0.20242
3.13 0.189658
3.14 0.170085
3.15 0.142948
3.16 0.109929
3.17 0.0713368
3.18 0.0283182
3.19 -0.017779
3.2 -0.0659789
3.21 -0.114729
3.22 -0.162849
3.23 -0.20909
3.24 -0.252619
3.25 -0.292086
3.26 -0.327408
3.27 -0.357734
3.28 -0.383078
3.29 -0.40368
3.3 -0.419339
3.31 -0.431156
3.32 -0.439369
3.33 -0.44501
3.34 -0.448908
3.35 -0.451886
3.36 -0.45484
3.37 -0.458548
3.38 -0.463588
3.39 -0.470355
3.4 -0.479224
3.41 -0.489945
3.42 -0.502492
3.43 -0.516188
3.44 -0.530381
3.45 -0.544076
3.46 -0.556335
3.47 -0.565655
3.48 -0.571061
3.49 -0.571239
3.5 -0.564658
3.51 -0.550992
3.52 -0.528152
3.53 -0.496537
3.54 -0.455268
3.55 -0.403988
3.56 -0.343742
3.57 -0.273636
3.58 -0.195797
3.59 -0.110708
3.6 -0.0198172
3.61 0.0750206
3.62 0.172441
3.63 0.270235
3.64 0.366582
3.65 0.459436
3.66 0.547372
3.67 0.62771
3.68 0.700001
3.69 0.762148
3.7 0.81332
3.71 0.853328
3.72 0.880229
3.73 0.895569
3.74 0.898206
3.75 0.889145
3.76 0.869303
3.77 0.838505
3.78 0.799075
3.79 0.751184
3.8 0.696664
3.81 0.636764
3.82 0.572463
3.83 0.505433
3.84 0.436563
3.85 0.367115
3.86 0.297972
3.87 0.230095
3.88 0.163999
3.89 0.100558
3.9 0.0400001
3.91 -0.0172619
3.92 -0.070747
3.93 -0.120636
3.94 -0.166206
3.95 -0.207772
3.96 -0.245019
3.97 -0.277627
3.98 -0.305868
3.99 -0.328832
4 -0.346948
4.01 -0.359678
4.02 -0.366665
4.03 -0.368182
4.04 -0.36307
4.05 -0.352084
4.06 -0.334646
4.07 -0.310751
4.08 -0.280946
4.09 -0.244548
4.1 -0.202833
4.11 -0.155776
4.12 -0.104162
4.13 -0.0489303
4.14 0.00939547
4.15 0.0694352
4.16 0.130292
4.17 0.190731
4.18 0.249727
4.19 0.305815
4.2 0.358321
4.21 0.405814
4.22 0.447609
4.23 0.483141
4.24 0.511122
4.25 0.532074
4.26 0.54491
4.27 0.550167
4.28 0.548029
4.29 0.538303
4.3 0.522326
4.31 0.499971
4.32 0.472575
4.33 0.440859
4.34 0.405567
4.35 0.36792
4.36 0.328566
4.37 0.288552
4.38 0.248587
4.39 0.209435
4.4 0.171538
4.41 0.135586
4.42 0.101678
4.43 0.0701016
4.44 0.0410005
4.45 0.0141241
4.46 -0.0103076
4.47 -0.0328059
4.48 -0.0534641
4.49 -0.0725548
4.5 -0.0904415
4.51 -0.107203
4.52 -0.123205
4.53 -0.138523
4.54 -0.153256
4.55 -0.167451
4.56 -0.180956
4.57 -0.193734
4.58 -0.205515
4.59 -0.216051
4.6 -0.22514
4.61 -0.232236
4.62 -0.237295
4.63 -0.239795
4.64 -0.23956
4.65 -0.236482
4.66 -0.230074
4.67 -0.22068
4.68 -0.207959
4.69 -0.192209
4.7 -0.173637
4.71 -0.152281
4.72 -0.12878
4.73 -0.103273
4.74 -0.0763644
4.75 -0.0484762
4.76 -0.0200665
4.77 0.00837861
4.78 0.0363958
4.79 0.0636167
4.8 0.0897079
4.81 0.1143
4.82 0.137358
4.83 0.158517
4.84 0.17792
4.85 0.19551
4.86 0.2113
4.87 0.225573
4.88 0.238274
4.89 0.249781
4.9 0.26021
4.91 0.269747
4.92 0.278623
4.93 0.286889
4.94 0.294724
4.95 0.302143
4.96 0.309143
4.97 0.315709
4.98 0.321652
4.99 0.326913
5 0.331249
5.01 0.334446
5.02 0.33637
5.03 0.336582
5.04 0.335107
5.05 0.331585
5.06 0.325917
5.07 0.318096
5.08 0.307797
5.09 0.295342
5.1 0.280554
5.11 0.263675
5.12 0.244915
5.13 0.224335
5.14 0.202402
5.15 0.179253
5.16 0.155289
5.17 0.1308
5.18 0.106083
5.19 0.0814275
5.2 0.057109
5.21 0.0333229
5.22 0.0102324
5.23 -0.0119789
5.24 -0.0333361
5.25 -0.0536898
5.26 -0.0731524
5.27 -0.0917459
5.28 -0.109516
5.29 -0.126633
5.3 -0.143114
5.31 -0.159132
5.32 -0.174751
5.33 -0.190031
5.34 -0.205038
5.35 -0.219732
5.36 -0.234118
5.37 -0.248102
5.38 -0.261559
5.39 -0.274405
5.4 -0.28634
5.41 -0.297306
5.42 -0.307029
5.43 -0.315301
5.44 -0.322059
5.45 -0.326884
5.46 -0.329922
5.47 -0.330915
5.48 -0.329871
5.49 -0.326909
5.5 -0.321856
5.51 -0.315111
5.52 -0.306676
5.53 -0.29686
5.54 -0.285952
5.55 -0.274168
5.56 -0.261922
5.57 -0.249496
5.58 -0.237245
5.59 -0.22545
5.6 -0.214482
5.61 -0.204483
5.62 -0.195798
5.63 -0.18851
5.64 -0.18273
5.65 -0.178651
5.66 -0.176104
5.67 -0.175269
5.68 -0.17593
5.69 -0.178022
5.7 -0.181492
5.71 -0.186068
5.72 -0.191745
5.73 -0.198256
5.74 -0.205494
5.75 -0.213338
5.76 -0.221623
5.77 -0.230302
5.78 -0.239242
5.79 -0.248392
5.8 -0.257694
5.81 -0.267092
5.82 -0.276546
5.83 -0.285995
5.84 -0.295377
5.85 -0.304601
5.86 -0.313585
5.87 -0.322132
5.88 -0.33014
5.89 -0.337367
5.9 -0.343574
5.91 -0.348599
5.92 -0.351955
5.93 -0.353593
5.94 -0.353061
5.95 -0.350128
5.96 -0.344682
5.97 -0.336167
5.98 -0.324832
5.99 -0.310274
6 -0.292622
6.01 -0.272019
6.02 -0.248326
6.03 -0.222153
6.04 -0.193546
6.05 -0.163096
6.06 -0.13127
6.07 -0.0985757
6.08 -0.0656767
6.09 -0.0332129
6.1 -0.00181717
6.11 0.0279226
6.12 0.0552254
6.13 0.0798584
6.14 0.100957
6.15 0.118479
6.16 0.132099
6.17 0.141473
6.18 0.147032
6.19 0.148363
6.2 0.146206
6.21 0.140786
6.22 0.132567
6.23 0.122366
6.24 0.11066
6.25 0.0984017
6.26 0.0863138
6.27 0.0752817
6.28 0.0659146
6.29 0.0593368
6.3 0.0558204
6.31 0.0561621
6.32 0.0608473
6.33 0.069848
6.34 0.0840439
6.35 0.102717
6.36 0.126155
6.37 0.153946
6.38 0.185451
6.39 0.220518
6.4 0.257989
6.41 0.297313
6.42 0.337488
6.43 0.377642
6.44 0.416685
6.45 0.453851
6.46 0.48799
6.47 0.518345
6.48 0.544286
6.49 0.564601
6.5 0.579435
6.51 0.587667
6.52 0.589452
6.53 0.584688
6.54 0.572864
6.55 0.554926
6.56 0.530385
6.57 0.500245
6.58 0.464931
6.59 0.424843
6.6 0.381148
6.61 0.334183
6.62 0.285112
6.63 0.234646
6.64 0.183645
6.65 0.132889
6.66 0.0832571
6.67 0.0353253
6.68 -0.0102307
6.69 -0.0527554
6.7 -0.0921216
6.71 -0.127429
6.72 -0.158962
6.73 -0.186317
6.74 -0.209405
6.75 -0.228609
6.76 -0.243413
6.77 -0.254646
6.78 -0.262235
6.79 -0.266541
6.8 -0.268078
6.81 -0.266846
6.82 -0.263589
6.83 -0.258467
6.84 -0.251908
6.85 -0.24428
6.86 -0.235791
6.87 -0.226808
6.88 -0.217505
6.89 -0.208091
6.9 -0.198697
6.91 -0.18944
6.92 -0.180364
6.93 -0.17152
6.94 -0.162896
6.95 -0.154474
6.96 -0.146235
6.97 -0.13812
6.98 -0.130103
6.99 -0.122142
7 -0.114215
7.01 -0.106315
7.02 -0.0984496
7.03 -0.0906551
7.04 -0.0829763
7.05 -0.0754786
7.06 -0.0682637
7.07 -0.0613876
7.08 -0.055007
7.09 -0.049168
7.1 -0.0439758
7.11 -0.0395358
7.12 -0.0358245
7.13 -0.0329821
7.14 -0.0308943
7.15 -0.0295617
7.16 -0.0289052
7.17 -0.0287549
7.18 -0.0290072
7.19 -0.0294082
7.2 -0.0297486
7.21 -0.0297526
7.22 -0.0292077
7.23 -0.0277109
7.24 -0.0251363
7.25 -0.0211419
7.26 -0.0155136
7.27 -0.00818742
7.28 0.00122359
7.29 0.0125019
7.3 0.025839
7.31 0.0410918
7.32 0.05805
7.33 0.0766726
7.34 0.0964686
7.35 0.11721
7.36 0.138419
7.37 0.15967
7.38 0.180422
7.39 0.200261
7.4 0.21856
7.41 0.234914
7.42 0.248925
7.43 0.259946
7.44 0.268005
7.45 0.272442
7.46 0.273371
7.47 0.270684
7.48 0.264163
7.49 0.254328
7.5 0.240946
7.51 0.224672
7.52 0.205782
7.53 0.184658
7.54 0.161981
7.55 0.138122
7.56 0.113786
7.57 0.0894871
7.58 0.0658333
7.59 0.0432314
7.6 0.0223769
7.61 0.00345262
7.62 -0.0130996
7.63 -0.0269811
7.64 -0.0382741
7.65 -0.0464659
7.66 -0.0520224
7.67 -0.0548246
7.68 -0.0550926
7.69 -0.0532303
7.7 -0.0492748
7.71 -0.0438724
7.72 -0.037268
7.73 -0.0299283
7.74 -0.0222595
7.75 -0.0146742
7.76 -0.00752169
7.77 -0.00118662
7.78 0.00404993
7.79 0.00800677
7.8 0.0103243
7.81 0.0110858
7.82 0.0100386
7.83 0.00726662
7.84 0.00283284
7.85 -0.00332862
7.86 -0.0108988
7.87 -0.0198932
7.88 -0.0300236
7.89 -0.0411105
7.9 -0.0529964
7.91 -0.0653989
7.92 -0.0781671
7.93 -0.0910624
7.94 -0.103911
7.95 -0.116511
7.96 -0.128736
7.97 -0.140368
7.98 -0.151324
7.99 -0.161461
8 -0.170614
8.01 -0.178778
8.02 -0.185688
8.03 -0.191396
8.04 -0.19575
8.05 -0.19863
8.06 -0.2001
8.07 -0.199858
8.08 -0.198083
8.09 -0.194629
8.1 -0.189472
8.11 -0.182754
8.12 -0.174257
8.13 -0.164303
8.14 -0.15285
8.15 -0.140058
8.16 -0.126151
8.17 -0.111185
8.18 -0.0955153
8.19 -0.0793073
8.2 -0.0628478
8.21 -0.0463833
8.22 -0.0302109
8.23 -0.014534
8.24 0.000358124
8.25 0.0142843
8.26 0.0271187
8.27 0.0386032
8.28 0.0488332
8.29 0.0576378
8.3 0.0651432
8.31 0.0714466
8.32 0.0766059
8.33 0.0809341
8.34 0.0845709
8.35 0.0878464
8.36 0.0910219
8.37 0.0944198
8.38 0.0982826
8.39 0.102965
8.4 0.108632
8.41 0.115491
8.42 0.123753
8.43 0.133347
8.44 0.144471
8.45 0.156887
8.46 0.170513
8.47 0.185151
8.48 0.200452
8.49 0.216139
8.5 0.231775
8.51 0.246958
8.52 0.261202
8.53 0.274199
8.54 0.285255
8.55 0.294254
8.56 0.300698
8.57 0.304285
8.58 0.305033
8.59 0.302349
8.6 0.296676
8.61 0.287782
8.62 0.275878
8.63 0.261333
8.64 0.244128
8.65 0.224979
8.66 0.204105
8.67 0.182063
8.68 0.159335
8.69 0.136398
8.7 0.113735
8.71 0.091833
8.72 0.0710801
8.73 0.0517665
8.74 0.0343493
8.75 0.0187889
8.76 0.005436
8.77 -0.00582613
8.78 -0.01505
8.79 -0.0222149
8.8 -0.0277364
8.81 -0.03167
8.82 -0.0344652
8.83 -0.0364188
8.84 -0.0378772
8.85 -0.0392224
8.86 -0.040815
8.87 -0.0429575
8.88 -0.0459294
8.89 -0.0500213
8.9 -0.0552774
8.91 -0.0619875
8.92 -0.0700152
8.93 -0.0793904
8.94 -0.0900274
8.95 -0.101657
8.96 -0.114175
8.97 -0.127182
8.98 -0.140404
8.99 -0.153458
9 -0.166035
9.01 -0.177624
9.02 -0.188014
9.03 -0.196768
9.04 -0.203566
9.05 -0.208298
9.06 -0.210403
9.07 -0.210084
9.08 -0.207002
9.09 -0.201181
9.1 -0.192774
9.11 -0.181537
9.12 -0.167977
9.13 -0.152038
9.14 -0.13408
9.15 -0.114424
9.16 -0.093245
9.17 -0.0710611
9.18 -0.0481295
9.19 -0.02489
9.2 -0.00169243
9.21 0.0210364
9.22 0.0430116
9.23 0.0637769
9.24 0.0830898
9.25 0.100677
9.26 0.116125
9.27 0.129464
9.28 0.140213
9.29 0.148462
9.3 0.154069
9.31 0.156826
9.32 0.157014
9.33 0.154288
9.34 0.149025
9.35 0.141219
9.36 0.130924
9.37 0.118523
9.38 0.103899
9.39 0.0875303
9.4 0.069524
9.41 0.0501043
9.42 0.0296052
9.43 0.00812011
9.44 -0.0139846
9.45 -0.0365422
9.46 -0.0593216
9.47 -0.0821298
9.48 -0.104762
9.49 -0.127082
9.5 -0.14892
9.51 -0.170145
9.52 -0.190691
9.53 -0.210351
9.54 -0.229159
9.55 -0.246946
9.56 -0.263665
9.57 -0.279289
9.58 -0.293592
9.59 -0.306659
9.6 -0.318252
9.61 -0.328325
9.62 -0.336805
9.63 -0.343375
9.64 -0.348131
9.65 -0.350696
9.66 -0.35105
9.67 -0.349071
9.68 -0.344401
9.69 -0.337232
9.7 -0.327129
9.71 -0.31426
9.72 -0.298567
9.73 -0.279886
9.74 -0.258601
9.75 -0.234485
9.76 -0.208006
9.77 -0.179329
9.78 -0.148693
9.79 -0.116627
9.8 -0.083375
9.81 -0.0495375
9.82 -0.0155506
9.83 0.0180233
9.84 0.0507535
9.85 0.0819242
9.86 0.111238
9.87 0.138131
9.88 0.162121
9.89 0.183137
9.9 0.200352
9.91 0.214104
9.92 0.223983
9.93 0.229974
9.94 0.232393
9.95 0.230853
9.96 0.226124
9.97 0.218182
9.98 0.207479
9.99 0.194516
10 0.179487
10.01 0.163105
10.02 0.145682
10.03 0.127734
10.04 0.109662
10.05 0.0918905
10.06 0.0747026
10.07 0.0584556
10.08 0.043332
10.09 0.029458
10.1 0.0170633
10.11 0.00600787
10.12 -0.00355818
10.13 -0.011808
10.14 -0.0188345
10.15 -0.0246883
10.16 -0.0296342
10.17 -0.0337109
10.18 -0.0371443
10.19 -0.0400446
10.2 -0.0425023
10.21 -0.0446375
10.22 -0.0464573
10.23 -0.0480095
10.24 -0.0492679
10.25 -0.0501691
10.26 -0.0506832
10.27 -0.0506523
10.28 -0.050042
10.29 -0.0487269
10.3 -0.0465922
10.31 -0.0436451
10.32 -0.0396996
10.33 -0.0348745
10.34 -0.0291256
10.35 -0.022516
10.36 -0.0152032
10.37 -0.00723264
10.38 0.00112859
10.39 0.00971967
10.4 0.0182978
10.41 0.0266573
10.42 0.0345025
10.43 0.0416933
10.44 0.0479736
10.45 0.0532016
10.46 0.0573229
10.47 0.0601279
10.48 0.061784
10.49 0.0622216
10.5 0.0616187
10.51 0.0601594
10.52 0.0580035
10.53 0.0554856
10.54 0.0528646
10.55 0.0504725
10.56 0.0485928
10.57 0.0476099
10.58 0.0476757
10.59 0.0491698
10.6 0.0521647
10.61 0.0567753
10.62 0.0631574
10.63 0.0710829
10.64 0.0806366
10.65 0.0914607
10.66 0.103333
10.67 0.115932
10.68 0.128825
10.69 0.141583
10.7 0.153756
10.71 0.164881
10.72 0.174424
10.73 0.18215
10.74 0.187345
10.75 0.190003
10.76 0.189732
10.77 0.186304
10.78 0.179918
10.79 0.170102
10.8 0.15744
10.81 0.141889
10.82 0.123754
10.83 0.103529
10.84 0.0813492
10.85 0.0579299
10.86 0.0336174
10.87 0.00895317
10.88 -0.0156115
10.89 -0.039533
10.9 -0.0624833
10.91 -0.083979
10.92 -0.103721
10.93 -0.121536
10.94 -0.136962
10.95 -0.150172
10.96 -0.160839
10.97 -0.169078
10.98 -0.174973
10.99 -0.178382
11 -0.179712
11.01 -0.178849
11.02 -0.176102
11.03 -0.171623
11.04 -0.165446
11.05 -0.157896
11.06 -0.148927
11.07 -0.138776
11.08 -0.12751
11.09 -0.115147
11.1 -0.101858
11.11 -0.0875705
11.12 -0.0724375
11.13 -0.0564823
11.14 -0.0397431
11.15 -0.0223732
11.16 -0.00439776
11.17 0.0139736
11.18 0.0326007
11.19 0.0512669
11.2 0.069759
11.21 0.0877519
11.22 0.105025
11.23 0.121241
11.24 0.136056
11.25 0.14932
11.26 0.16044
11.27 0.169476
11.28 0.176034
11.29 0.179959
11.3 0.18133
11.31 0.17972
11.32 0.175577
11.33 0.168757
11.34 0.159524
11.35 0.148217
11.36 0.134923
11.37 0.120251
11.38 0.104458
11.39 0.0880469
11.4 0.0714344
11.41 0.0550928
11.42 0.0393817
11.43 0.0247644
11.44 0.0115238
11.45 -0.000113031
11.46 -0.0097722
11.47 -0.0175677
11.48 -0.0232136
11.49 -0.0269033
11.5 -0.0287263
11.51 -0.02874
11.52 -0.0273564
11.53 -0.0246817
11.54 -0.0211527
11.55 -0.0170564
11.56 -0.0127321
11.57 -0.00849666
11.58 -0.00468729
11.59 -0.00152222
11.6 0.000774319
11.61 0.00199703
11.62 0.00215944
11.63 0.00105727
11.64 -0.00112955
11.65 -0.00438646
11.66 -0.008588
11.67 -0.0134972
11.68 -0.0189959
11.69 -0.0247789
11.7 -0.0306446
11.71 -0.0363431
11.72 -0.0416961
11.73 -0.0464291
11.74 -0.0504774
11.75 -0.053664
11.76 -0.0559229
11.77 -0.0572818
11.78 -0.057629
11.79 -0.0571534
11.8 -0.0558574
11.81 -0.0538891
11.82 -0.0513949
11.83 -0.0484696
11.84 -0.0453007
11.85 -0.0419902
11.86 -0.0386595
11.87 -0.0353842
11.88 -0.0322282
11.89 -0.0291928
11.9 -0.0262733
11.91 -0.0234076
11.92 -0.0205201
11.93 -0.0174897
11.94 -0.0142181
11.95 -0.0105362
11.96 -0.00634453
11.97 -0.00153029
11.98 0.00405235
11.99 0.0103795
12 0.0175819
12.01 0.0255535
12.02 0.0342527
12.03 0.0435833
12.04 0.0533319
12.05 0.0633297
12.06 0.0732966
12.07 0.0829698
12.08 0.0920134
12.09 0.100212
12.1 0.107095
12.11 0.112548
12.12 0.116237
12.13 0.117912
12.14 0.117599
12.15 0.114848
12.16 0.109971
12.17 0.102816
12.18 0.0934985
12.19 0.0823099
12.2 0.069212
12.21 0.0547324
12.22 0.039037
12.23 0.0225109
12.24 0.00550858
12.25 -0.011635
12.26 -0.0285771
12.27 -0.044984
12.28 -0.0605819
12.29 -0.0751886
12.3 -0.0884833
12.31 -0.10051
12.32 -0.11105
12.33 -0.12017
12.34 -0.127925
12.35 -0.134276
12.36 -0.139496
12.37 -0.143593
12.38 -0.146809
12.39 -0.149291
12.4 -0.151151
12.41 -0.152583
12.42 -0.15364
12.43 -0.154427
12.44 -0.154965
12.45 -0.155226
12.46 -0.155186
12.47 -0.154696
12.48 -0.153666
12.49 -0.151928
12.5 -0.149255
12.51 -0.145567
12.52 -0.140507
12.53 -0.134069
12.54 -0.126047
12.55 -0.116293
12.56 -0.104915
12.57 -0.0916482
12.58 -0.0768086
12.59 -0.0603978
12.6 -0.0426101
12.61 -0.0237681
12.62 -0.00403598
12.63 0.0161264
12.64 0.0364014
12.65 0.0563692
12.66 0.0756988
12.67 0.0938574
12.68 0.110656
12.69 0.12564
12.7 0.138569
12.71 0.149343
12.72 0.157525
12.73 0.16338
12.74 0.166656
12.75 0.167552
12.76 0.16627
12.77 0.162818
12.78 0.15772
12.79 0.151104
12.8 0.143428
12.81 0.135041
12.82 0.126298
12.83 0.117582
12.84 0.109253
12.85 0.1016
12.86 0.0948691
12.87 0.0893569
12.88 0.085069
