# xPDFsuite Configuration #
[PDF]
wavelength = 0.1
dataformat = QA
inputfile = B3_Bronze-3nm_ss_004.chi
backgroundfile = B3_Li-bkg_DD155_two_ss_att.chi
mode = xray
bgscale = 0.985
composition = Ti O2
outputtype = gr
qmaxinst = 23.5
qmin = 0.1
qmax = 23.0
rmax = 40.0
rmin = 0.0
rstep = 0.01
rpoly = 0.9

[Misc]
inputdir = E:/Beamtime/PETRA-III_September-2019/BeamData/processed/Run1/B3/integration_20210218/chi/chi_w_sigmas/chi_scaled
savedir = E:/Beamtime/PETRA-III_September-2019/BeamData/processed/Run1/B3/integration_20210218
backgroundfilefull = E:/Beamtime/PETRA-III_September-2019/BeamData/processed/Run1/B3/integration_20210218/chi/chi_w_sigmas/chi_scaled/B3_Li-bkg_DD155_two_ss_att.chi

#### start data
#S 1
#L r($\AA$)  G($\AA^{-2}$)
0 0
0.01 0.00457045
0.02 0.00889917
0.03 0.0127415
0.04 0.0158788
0.05 0.0182066
0.06 0.019462
0.07 0.0197261
0.08 0.0188887
0.09 0.0170258
0.1 0.0142759
0.11 0.0106936
0.12 0.00657177
0.13 0.00207522
0.14 -0.00252392
0.15 -0.00699841
0.16 -0.011061
0.17 -0.0145535
0.18 -0.017215
0.19 -0.01894
0.2 -0.0196527
0.21 -0.0192124
0.22 -0.0177682
0.23 -0.015268
0.24 -0.0119207
0.25 -0.00788099
0.26 -0.00333249
0.27 0.00145038
0.28 0.00623039
0.29 0.010746
0.3 0.0147646
0.31 0.0180103
0.32 0.0203876
0.33 0.0216053
0.34 0.0216813
0.35 0.0205206
0.36 0.0180767
0.37 0.0145151
0.38 0.00976943
0.39 0.0041209
0.4 -0.00232301
0.41 -0.00936564
0.42 -0.0167701
0.43 -0.0243534
0.44 -0.0318833
0.45 -0.0391666
0.46 -0.0460066
0.47 -0.0522956
0.48 -0.0577885
0.49 -0.0624894
0.5 -0.0662376
0.51 -0.0689704
0.52 -0.0706953
0.53 -0.0712107
0.54 -0.0706324
0.55 -0.0687947
0.56 -0.0656714
0.57 -0.0612495
0.58 -0.0552714
0.59 -0.0478426
0.6 -0.0386928
0.61 -0.0277919
0.62 -0.0150917
0.63 -0.000312829
0.64 0.0163424
0.65 0.0351125
0.66 0.0558127
0.67 0.0783278
0.68 0.102599
0.69 0.128173
0.7 0.15484
0.71 0.182049
0.72 0.20932
0.73 0.235986
0.74 0.261511
0.75 0.284988
0.76 0.305891
0.77 0.3235
0.78 0.336936
0.79 0.346083
0.8 0.349771
0.81 0.348253
0.82 0.341086
0.83 0.328061
0.84 0.309835
0.85 0.285945
0.86 0.257617
0.87 0.225198
0.88 0.189537
0.89 0.151742
0.9 0.112639
0.91 0.0734849
0.92 0.0353202
0.93 -0.000726875
0.94 -0.0339492
0.95 -0.062961
0.96 -0.0877145
0.97 -0.107361
0.98 -0.121786
0.99 -0.131289
1 -0.13554
1.01 -0.135758
1.02 -0.132287
1.03 -0.126303
1.04 -0.118918
1.05 -0.111383
1.06 -0.104956
1.07 -0.101085
1.08 -0.100913
1.09 -0.105364
1.1 -0.115886
1.11 -0.132357
1.12 -0.155878
1.13 -0.185952
1.14 -0.222267
1.15 -0.264521
1.16 -0.311085
1.17 -0.361083
1.18 -0.412518
1.19 -0.463683
1.2 -0.512307
1.21 -0.556729
1.22 -0.59407
1.23 -0.62302
1.24 -0.641579
1.25 -0.647615
1.26 -0.641242
1.27 -0.619675
1.28 -0.584378
1.29 -0.53475
1.3 -0.4712
1.31 -0.396002
1.32 -0.309132
1.33 -0.214233
1.34 -0.113062
1.35 -0.0085896
1.36 0.0963071
1.37 0.198174
1.38 0.294444
1.39 0.381771
1.4 0.457334
1.41 0.51973
1.42 0.564772
1.43 0.593393
1.44 0.603015
1.45 0.593799
1.46 0.566808
1.47 0.520736
1.48 0.459397
1.49 0.383032
1.5 0.294812
1.51 0.197522
1.52 0.093559
1.53 -0.0132967
1.54 -0.120121
1.55 -0.223653
1.56 -0.321245
1.57 -0.409363
1.58 -0.486944
1.59 -0.550648
1.6 -0.600102
1.61 -0.634388
1.62 -0.652051
1.63 -0.655039
1.64 -0.642033
1.65 -0.615669
1.66 -0.577002
1.67 -0.527415
1.68 -0.469865
1.69 -0.405567
1.7 -0.337522
1.71 -0.267618
1.72 -0.198073
1.73 -0.130534
1.74 -0.0671149
1.75 -0.00860154
1.76 0.0437987
1.77 0.089336
1.78 0.128377
1.79 0.159949
1.8 0.185494
1.81 0.205158
1.82 0.219896
1.83 0.230961
1.84 0.239026
1.85 0.245587
1.86 0.251516
1.87 0.257821
1.88 0.26516
1.89 0.274305
1.9 0.285309
1.91 0.298415
1.92 0.313328
1.93 0.329567
1.94 0.346515
1.95 0.363248
1.96 0.378698
1.97 0.391748
1.98 0.401392
1.99 0.40599
2 0.405132
2.01 0.397156
2.02 0.381735
2.03 0.358375
2.04 0.326076
2.05 0.285794
2.06 0.236707
2.07 0.180072
2.08 0.116486
2.09 0.0466372
2.1 -0.0277017
2.11 -0.105665
2.12 -0.185338
2.13 -0.265284
2.14 -0.343704
2.15 -0.419282
2.16 -0.489862
2.17 -0.554552
2.18 -0.611813
2.19 -0.660195
2.2 -0.699648
2.21 -0.727906
2.22 -0.745922
2.23 -0.752704
2.24 -0.748087
2.25 -0.733135
2.26 -0.706492
2.27 -0.670383
2.28 -0.624628
2.29 -0.570218
2.3 -0.508572
2.31 -0.439824
2.32 -0.366069
2.33 -0.287995
2.34 -0.207055
2.35 -0.124534
2.36 -0.0417057
2.37 0.0401437
2.38 0.119621
2.39 0.19549
2.4 0.266768
2.41 0.331629
2.42 0.389839
2.43 0.439597
2.44 0.480467
2.45 0.511886
2.46 0.532306
2.47 0.542611
2.48 0.541263
2.49 0.529101
2.5 0.506257
2.51 0.472421
2.52 0.429403
2.53 0.376899
2.54 0.31691
2.55 0.250494
2.56 0.178963
2.57 0.10434
2.58 0.0280876
2.59 -0.047772
2.6 -0.121509
2.61 -0.191066
2.62 -0.255307
2.63 -0.311681
2.64 -0.359784
2.65 -0.398086
2.66 -0.425498
2.67 -0.442511
2.68 -0.447214
2.69 -0.441457
2.7 -0.424914
2.71 -0.398473
2.72 -0.363875
2.73 -0.321388
2.74 -0.273695
2.75 -0.221997
2.76 -0.168317
2.77 -0.114411
2.78 -0.0622927
2.79 -0.0133328
2.8 0.0306722
2.81 0.0685455
2.82 0.0996666
2.83 0.122456
2.84 0.137674
2.85 0.144491
2.86 0.143687
2.87 0.136047
2.88 0.121928
2.89 0.103222
2.9 0.0807635
2.91 0.0563271
2.92 0.0313044
2.93 0.00731791
2.94 -0.0144504
2.95 -0.0323962
2.96 -0.0457568
2.97 -0.0537594
2.98 -0.0554949
2.99 -0.0514574
3 -0.040973
3.01 -0.0251121
3.02 -0.00439129
3.03 0.0203402
3.04 0.0476126
3.05 0.0763352
3.06 0.104899
3.07 0.131924
3.08 0.155804
3.09 0.175639
3.1 0.189483
3.11 0.197146
3.12 0.197555
3.13 0.190161
3.14 0.1755
3.15 0.152544
3.16 0.122929
3.17 0.0867822
3.18 0.0451682
3.19 -0.00052959
3.2 -0.0494847
3.21 -0.0999337
3.22 -0.150696
3.23 -0.200357
3.24 -0.247892
3.25 -0.291804
3.26 -0.331742
3.27 -0.366642
3.28 -0.396275
3.29 -0.420689
3.3 -0.439394
3.31 -0.453414
3.32 -0.462742
3.33 -0.468355
3.34 -0.471044
3.35 -0.471498
3.36 -0.470798
3.37 -0.469655
3.38 -0.468856
3.39 -0.468935
3.4 -0.470411
3.41 -0.473304
3.42 -0.477765
3.43 -0.483378
3.44 -0.489699
3.45 -0.495985
3.46 -0.50143
3.47 -0.504804
3.48 -0.505185
3.49 -0.501394
3.5 -0.492017
3.51 -0.476647
3.52 -0.453359
3.53 -0.422366
3.54 -0.382786
3.55 -0.334187
3.56 -0.277428
3.57 -0.21161
3.58 -0.138624
3.59 -0.0588709
3.6 0.0263328
3.61 0.115261
3.62 0.206629
3.63 0.298334
3.64 0.388613
3.65 0.475476
3.66 0.557524
3.67 0.632112
3.68 0.698782
3.69 0.755448
3.7 0.801273
3.71 0.836059
3.72 0.85788
3.73 0.868273
3.74 0.866133
3.75 0.852491
3.76 0.8283
3.77 0.793478
3.78 0.75038
3.79 0.699299
3.8 0.642133
3.81 0.580205
3.82 0.514646
3.83 0.447114
3.84 0.378661
3.85 0.310528
3.86 0.243628
3.87 0.178984
3.88 0.116978
3.89 0.0585403
3.9 0.00372448
3.91 -0.0471451
3.92 -0.0937073
3.93 -0.136341
3.94 -0.174461
3.95 -0.208589
3.96 -0.238578
3.97 -0.264311
3.98 -0.28617
3.99 -0.30348
4 -0.316695
4.01 -0.325409
4.02 -0.329333
4.03 -0.328673
4.04 -0.322395
4.05 -0.311056
4.06 -0.294057
4.07 -0.271266
4.08 -0.243061
4.09 -0.208658
4.1 -0.169118
4.11 -0.124279
4.12 -0.0747593
4.13 -0.0213839
4.14 0.0354866
4.15 0.0944994
4.16 0.154853
4.17 0.215309
4.18 0.274804
4.19 0.331861
4.2 0.385663
4.21 0.434691
4.22 0.478096
4.23 0.515168
4.24 0.544422
4.25 0.566257
4.26 0.579375
4.27 0.584211
4.28 0.580848
4.29 0.568937
4.3 0.549885
4.31 0.523445
4.32 0.491081
4.33 0.453577
4.34 0.411762
4.35 0.367079
4.36 0.320303
4.37 0.272732
4.38 0.225274
4.39 0.178945
4.4 0.134351
4.41 0.0924783
4.42 0.0535149
4.43 0.0179288
4.44 -0.0139922
4.45 -0.0425485
4.46 -0.067317
4.47 -0.0890133
4.48 -0.107721
4.49 -0.12383
4.5 -0.137919
4.51 -0.150138
4.52 -0.161159
4.53 -0.171222
4.54 -0.180659
4.55 -0.189706
4.56 -0.198451
4.57 -0.206961
4.58 -0.215147
4.59 -0.222845
4.6 -0.229866
4.61 -0.235776
4.62 -0.240388
4.63 -0.243187
4.64 -0.243857
4.65 -0.242149
4.66 -0.237456
4.67 -0.229921
4.68 -0.219047
4.69 -0.204961
4.7 -0.18774
4.71 -0.167254
4.72 -0.144109
4.73 -0.118318
4.74 -0.0905157
4.75 -0.0611393
4.76 -0.0306731
4.77 0.000243802
4.78 0.0310646
4.79 0.0612295
4.8 0.0902457
4.81 0.117538
4.82 0.142927
4.83 0.165806
4.84 0.186226
4.85 0.203986
4.86 0.218972
4.87 0.231515
4.88 0.241417
4.89 0.249235
4.9 0.255122
4.91 0.259403
4.92 0.262529
4.93 0.264713
4.94 0.266416
4.95 0.267889
4.96 0.269408
4.97 0.271142
4.98 0.27327
4.99 0.275786
5 0.2787
5.01 0.281902
5.02 0.285229
5.03 0.288445
5.04 0.291306
5.05 0.293476
5.06 0.294638
5.07 0.294547
5.08 0.292699
5.09 0.289052
5.1 0.283162
5.11 0.274939
5.12 0.264324
5.13 0.250995
5.14 0.235286
5.15 0.21698
5.16 0.196388
5.17 0.173702
5.18 0.149022
5.19 0.122841
5.2 0.095302
5.21 0.0668647
5.22 0.0378413
5.23 0.00858148
5.24 -0.0205807
5.25 -0.0492906
5.26 -0.0772962
5.27 -0.104338
5.28 -0.130126
5.29 -0.154618
5.3 -0.177459
5.31 -0.198725
5.32 -0.218269
5.33 -0.235988
5.34 -0.25203
5.35 -0.266127
5.36 -0.278539
5.37 -0.289179
5.38 -0.298061
5.39 -0.305362
5.4 -0.31086
5.41 -0.314851
5.42 -0.317241
5.43 -0.318083
5.44 -0.317522
5.45 -0.315395
5.46 -0.311975
5.47 -0.307198
5.48 -0.301175
5.49 -0.294052
5.5 -0.285799
5.51 -0.276682
5.52 -0.266747
5.53 -0.256185
5.54 -0.245166
5.55 -0.233839
5.56 -0.222416
5.57 -0.211076
5.58 -0.200013
5.59 -0.189388
5.6 -0.17944
5.61 -0.170242
5.62 -0.162042
5.63 -0.154904
5.64 -0.148929
5.65 -0.144307
5.66 -0.14095
5.67 -0.139078
5.68 -0.138588
5.69 -0.139512
5.7 -0.141922
5.71 -0.145641
5.72 -0.150816
5.73 -0.157246
5.74 -0.16492
5.75 -0.173809
5.76 -0.183723
5.77 -0.194718
5.78 -0.206562
5.79 -0.219192
5.8 -0.232481
5.81 -0.246236
5.82 -0.260343
5.83 -0.274565
5.84 -0.288705
5.85 -0.302507
5.86 -0.315769
5.87 -0.32808
5.88 -0.339289
5.89 -0.348996
5.9 -0.356885
5.91 -0.362792
5.92 -0.366091
5.93 -0.36687
5.94 -0.364639
5.95 -0.35927
5.96 -0.350775
5.97 -0.338666
5.98 -0.323402
5.99 -0.304703
6 -0.282884
6.01 -0.258244
6.02 -0.230839
6.03 -0.201381
6.04 -0.170105
6.05 -0.137677
6.06 -0.104634
6.07 -0.0716079
6.08 -0.0391777
6.09 -0.00807271
6.1 0.0211914
6.11 0.0480915
6.12 0.0719132
6.13 0.0926097
6.14 0.109409
6.15 0.122463
6.16 0.131593
6.17 0.136635
6.18 0.138144
6.19 0.135905
6.2 0.130733
6.21 0.122967
6.22 0.113176
6.23 0.102143
6.24 0.0904718
6.25 0.0789874
6.26 0.0684083
6.27 0.0595424
6.28 0.052848
6.29 0.0493872
6.3 0.0492268
6.31 0.0530346
6.32 0.061123
6.33 0.073329
6.34 0.0903301
6.35 0.111334
6.36 0.13647
6.37 0.165242
6.38 0.196997
6.39 0.231441
6.4 0.267536
6.41 0.304686
6.42 0.341983
6.43 0.378665
6.44 0.413705
6.45 0.446537
6.46 0.476129
6.47 0.501907
6.48 0.523392
6.49 0.539569
6.5 0.55069
6.51 0.55583
6.52 0.555223
6.53 0.548849
6.54 0.536332
6.55 0.518544
6.56 0.495108
6.57 0.466912
6.58 0.434335
6.59 0.397723
6.6 0.358057
6.61 0.315603
6.62 0.271324
6.63 0.225788
6.64 0.179679
6.65 0.133638
6.66 0.0883501
6.67 0.0443004
6.68 0.00203444
6.69 -0.0379043
6.7 -0.075379
6.71 -0.109635
6.72 -0.140845
6.73 -0.168629
6.74 -0.192838
6.75 -0.213726
6.76 -0.230749
6.77 -0.244541
6.78 -0.254933
6.79 -0.262133
6.8 -0.266532
6.81 -0.267978
6.82 -0.267129
6.83 -0.264023
6.84 -0.259018
6.85 -0.252461
6.86 -0.244469
6.87 -0.23549
6.88 -0.225676
6.89 -0.215316
6.9 -0.204627
6.91 -0.193796
6.92 -0.183003
6.93 -0.172404
6.94 -0.162115
6.95 -0.152218
6.96 -0.142831
6.97 -0.133941
6.98 -0.125642
6.99 -0.117905
7 -0.110728
7.01 -0.104139
7.02 -0.0980521
7.03 -0.092506
7.04 -0.087419
7.05 -0.0827704
7.06 -0.0785468
7.07 -0.0746752
7.08 -0.0711732
7.09 -0.0679711
7.1 -0.0650536
7.11 -0.0623979
7.12 -0.05995
7.13 -0.0577015
7.14 -0.0555852
7.15 -0.0535605
7.16 -0.0515627
7.17 -0.0495258
7.18 -0.0473482
7.19 -0.0449537
7.2 -0.0422232
7.21 -0.0390294
7.22 -0.0352979
7.23 -0.0307955
7.24 -0.025508
7.25 -0.0192448
7.26 -0.0119032
7.27 -0.00346374
7.28 0.00630887
7.29 0.0172731
7.3 0.0295574
7.31 0.0430846
7.32 0.0577364
7.33 0.0735155
7.34 0.0901205
7.35 0.107433
7.36 0.125156
7.37 0.14302
7.38 0.160681
7.39 0.177842
7.4 0.194079
7.41 0.209077
7.42 0.222524
7.43 0.233918
7.44 0.243211
7.45 0.249853
7.46 0.25384
7.47 0.255005
7.48 0.253065
7.49 0.248338
7.5 0.240496
7.51 0.229976
7.52 0.216891
7.53 0.201417
7.54 0.184091
7.55 0.165054
7.56 0.144923
7.57 0.124065
7.58 0.102964
7.59 0.0820561
7.6 0.0618701
7.61 0.0427308
7.62 0.025064
7.63 0.0092411
7.64 -0.004659
7.65 -0.0160896
7.66 -0.0252841
7.67 -0.032009
7.68 -0.036311
7.69 -0.0384484
7.7 -0.0382854
7.71 -0.0363706
7.72 -0.0328127
7.73 -0.0279978
7.74 -0.0223086
7.75 -0.0160537
7.76 -0.00967153
7.77 -0.00351888
7.78 0.00203894
7.79 0.00673088
7.8 0.0101332
7.81 0.0121796
7.82 0.0125202
7.83 0.0111079
7.84 0.00790257
7.85 0.00270894
7.86 -0.00420535
7.87 -0.0129654
7.88 -0.0232991
7.89 -0.0350447
7.9 -0.0480715
7.91 -0.062013
7.92 -0.0767101
7.93 -0.0918081
7.94 -0.107047
7.95 -0.122111
7.96 -0.136756
7.97 -0.150621
7.98 -0.163518
7.99 -0.175183
8 -0.185323
8.01 -0.193905
8.02 -0.200505
8.03 -0.205217
8.04 -0.207837
8.05 -0.208238
8.06 -0.206582
8.07 -0.202528
8.08 -0.19643
8.09 -0.1882
8.1 -0.177942
8.11 -0.165936
8.12 -0.152091
8.13 -0.13687
8.14 -0.120373
8.15 -0.102891
8.16 -0.0847325
8.17 -0.0661315
8.18 -0.0474403
8.19 -0.0289471
8.2 -0.0109624
8.21 0.00628405
8.22 0.0224033
8.23 0.0373225
8.24 0.050717
8.25 0.0625015
8.26 0.0726342
8.27 0.0808924
8.28 0.0875231
8.29 0.0924104
8.3 0.0958032
8.31 0.0978894
8.32 0.0988217
8.33 0.0989943
8.34 0.0986366
8.35 0.0981348
8.36 0.0978019
8.37 0.0980258
8.38 0.0990394
8.39 0.101259
8.4 0.104818
8.41 0.109924
8.42 0.116786
8.43 0.12527
8.44 0.135577
8.45 0.147393
8.46 0.160599
8.47 0.174945
8.48 0.190021
8.49 0.205498
8.5 0.220884
8.51 0.235725
8.52 0.249482
8.53 0.261821
8.54 0.271979
8.55 0.279847
8.56 0.284889
8.57 0.286792
8.58 0.285595
8.59 0.280674
8.6 0.272535
8.61 0.260953
8.62 0.246188
8.63 0.228661
8.64 0.208403
8.65 0.186199
8.66 0.162338
8.67 0.137446
8.68 0.112067
8.69 0.0867777
8.7 0.0620861
8.71 0.0385758
8.72 0.0166647
8.73 -0.00333034
8.74 -0.0208746
8.75 -0.0360616
8.76 -0.0484803
8.77 -0.058303
8.78 -0.0656121
8.79 -0.0703992
8.8 -0.0731854
8.81 -0.0740513
8.82 -0.0735539
8.83 -0.0720627
8.84 -0.07001
8.85 -0.0678626
8.86 -0.0660713
8.87 -0.0650034
8.88 -0.0650041
8.89 -0.0664322
8.9 -0.0693363
8.91 -0.0740777
8.92 -0.0804814
8.93 -0.0885844
8.94 -0.098281
8.95 -0.109235
8.96 -0.121326
8.97 -0.134058
8.98 -0.147103
8.99 -0.16
9 -0.172375
9.01 -0.183635
9.02 -0.193527
9.03 -0.201556
9.04 -0.207369
9.05 -0.210856
9.06 -0.211418
9.07 -0.209316
9.08 -0.204222
9.09 -0.196221
9.1 -0.18553
9.11 -0.171981
9.12 -0.156162
9.13 -0.138111
9.14 -0.118273
9.15 -0.0970337
9.16 -0.0746836
9.17 -0.0517456
9.18 -0.0285698
9.19 -0.00559113
9.2 0.016844
9.21 0.0382829
9.22 0.0585391
9.23 0.0771632
9.24 0.0940247
9.25 0.108934
9.26 0.121576
9.27 0.132096
9.28 0.140133
9.29 0.14588
9.3 0.149292
9.31 0.15028
9.32 0.149148
9.33 0.145675
9.34 0.140209
9.35 0.132773
9.36 0.123426
9.37 0.112459
9.38 0.0997637
9.39 0.0856761
9.4 0.0702337
9.41 0.0535483
9.42 0.035838
9.43 0.0170743
9.44 -0.0024774
9.45 -0.0227609
9.46 -0.0436416
9.47 -0.0649615
9.48 -0.0866403
9.49 -0.108493
9.5 -0.130398
9.51 -0.152195
9.52 -0.173752
9.53 -0.19485
9.54 -0.215389
9.55 -0.235139
9.56 -0.253933
9.57 -0.271647
9.58 -0.287937
9.59 -0.302808
9.6 -0.315912
9.61 -0.327141
9.62 -0.336381
9.63 -0.343237
9.64 -0.34785
9.65 -0.3498
9.66 -0.349131
9.67 -0.345769
9.68 -0.339403
9.69 -0.330332
9.7 -0.318188
9.71 -0.303246
9.72 -0.285533
9.73 -0.264984
9.74 -0.242036
9.75 -0.216562
9.76 -0.189047
9.77 -0.159692
9.78 -0.128765
9.79 -0.0967443
9.8 -0.0638938
9.81 -0.0307266
9.82 0.00236534
9.83 0.0348908
9.84 0.0665022
9.85 0.0965617
9.86 0.124847
9.87 0.150866
9.88 0.174202
9.89 0.194805
9.9 0.211918
9.91 0.225843
9.92 0.236182
9.93 0.242884
9.94 0.246205
9.95 0.245712
9.96 0.242079
9.97 0.235203
9.98 0.225439
9.99 0.213215
10 0.198603
10.01 0.182286
10.02 0.164482
10.03 0.145678
10.04 0.126274
10.05 0.106639
10.06 0.0871479
10.07 0.0681551
10.08 0.0499392
10.09 0.0327113
10.1 0.0167909
10.11 0.00216425
10.12 -0.0109008
10.13 -0.0224582
10.14 -0.0324954
10.15 -0.0409219
10.16 -0.0479669
10.17 -0.0535274
10.18 -0.0578307
10.19 -0.0609501
10.2 -0.0629357
10.21 -0.0639998
10.22 -0.0641139
10.23 -0.0634615
10.24 -0.0620803
10.25 -0.0600028
10.26 -0.0573339
10.27 -0.0540163
10.28 -0.0501482
10.29 -0.045714
10.3 -0.0407182
10.31 -0.0352279
10.32 -0.0291949
10.33 -0.0227326
10.34 -0.0158639
10.35 -0.00866926
10.36 -0.00125759
10.37 0.0062766
10.38 0.0137877
10.39 0.0211351
10.4 0.0281572
10.41 0.0347372
10.42 0.0406396
10.43 0.0458241
10.44 0.0501025
10.45 0.0534041
10.46 0.055721
10.47 0.056908
10.48 0.0571351
10.49 0.056367
10.5 0.0547707
10.51 0.0525117
10.52 0.0497422
10.53 0.0467417
10.54 0.043744
10.55 0.04103
10.56 0.0388443
10.57 0.0375288
10.58 0.037208
10.59 0.0382286
10.6 0.0406545
10.61 0.0445961
10.62 0.0502097
10.63 0.0572935
10.64 0.0659501
10.65 0.0758608
10.66 0.086839
10.67 0.0986073
10.68 0.110765
10.69 0.122935
10.7 0.134681
10.71 0.145569
10.72 0.155082
10.73 0.162966
10.74 0.168524
10.75 0.171701
10.76 0.17208
10.77 0.169389
10.78 0.163776
10.79 0.154712
10.8 0.142732
10.81 0.127738
10.82 0.109987
10.83 0.0899528
10.84 0.067716
10.85 0.0440173
10.86 0.0191888
10.87 -0.00619838
10.88 -0.0316469
10.89 -0.056574
10.9 -0.080571
10.91 -0.103083
10.92 -0.123726
10.93 -0.142252
10.94 -0.158088
10.95 -0.171372
10.96 -0.181673
10.97 -0.189079
10.98 -0.193655
10.99 -0.195201
11 -0.194199
11.01 -0.190516
11.02 -0.184553
11.03 -0.176535
11.04 -0.166577
11.05 -0.155132
11.06 -0.142266
11.07 -0.12834
11.08 -0.113536
11.09 -0.0980115
11.1 -0.0819927
11.11 -0.0655582
11.12 -0.0488647
11.13 -0.0319897
11.14 -0.0150101
11.15 0.00200386
11.16 0.0189876
11.17 0.0358779
11.18 0.0525994
11.19 0.0690498
11.2 0.0851578
11.21 0.100725
11.22 0.115672
11.23 0.129795
11.24 0.142884
11.25 0.15485
11.26 0.165267
11.27 0.174163
11.28 0.181216
11.29 0.18626
11.3 0.189297
11.31 0.189907
11.32 0.188367
11.33 0.184453
11.34 0.178275
11.35 0.170033
11.36 0.159638
11.37 0.147576
11.38 0.13393
11.39 0.119088
11.4 0.103391
11.41 0.0871541
11.42 0.0707939
11.43 0.0546747
11.44 0.0391555
11.45 0.0245281
11.46 0.0112042
11.47 -0.000738557
11.48 -0.0109243
11.49 -0.0193485
11.5 -0.0259422
11.51 -0.030568
11.52 -0.0334961
11.53 -0.03462
11.54 -0.0342776
11.55 -0.032634
11.56 -0.0298918
11.57 -0.0264081
11.58 -0.0223801
11.59 -0.0181494
11.6 -0.0139581
11.61 -0.0100788
11.62 -0.0066758
11.63 -0.00402084
11.64 -0.00215724
11.65 -0.00121436
11.66 -0.00125437
11.67 -0.00218807
11.68 -0.00410851
11.69 -0.00679565
11.7 -0.010197
11.71 -0.0141598
11.72 -0.018502
11.73 -0.0230934
11.74 -0.0277352
11.75 -0.0322765
11.76 -0.0365606
11.77 -0.0404871
11.78 -0.0438822
11.79 -0.0467373
11.8 -0.0489388
11.81 -0.0504704
11.82 -0.0513474
11.83 -0.0514952
11.84 -0.0510256
11.85 -0.0498984
11.86 -0.0481819
11.87 -0.045922
11.88 -0.0430988
11.89 -0.0398045
11.9 -0.0359999
11.91 -0.0317267
11.92 -0.0269877
11.93 -0.021735
11.94 -0.0160159
11.95 -0.0097561
11.96 -0.00299023
11.97 0.00428742
11.98 0.0120951
11.99 0.0203465
12 0.0290447
12.01 0.0380628
12.02 0.047308
12.03 0.0566378
12.04 0.0658929
12.05 0.0748513
12.06 0.0833311
12.07 0.0910949
12.08 0.097862
12.09 0.103512
12.1 0.107613
12.11 0.110153
12.12 0.110856
12.13 0.109543
12.14 0.10629
12.15 0.100711
12.16 0.0931371
12.17 0.083454
12.18 0.0717957
12.19 0.058446
12.2 0.0433951
12.21 0.0271356
12.22 0.00984117
12.23 -0.00811832
12.24 -0.026406
12.25 -0.0446752
12.26 -0.0626068
12.27 -0.0798498
12.28 -0.0961268
12.29 -0.111247
12.3 -0.124847
12.31 -0.136973
12.32 -0.14735
12.33 -0.156028
12.34 -0.163039
12.35 -0.168283
12.36 -0.172056
12.37 -0.174305
12.38 -0.175294
12.39 -0.175174
12.4 -0.174046
12.41 -0.172171
12.42 -0.169601
12.43 -0.166522
12.44 -0.163007
12.45 -0.159092
12.46 -0.154835
12.47 -0.150166
12.48 -0.145072
12.49 -0.139458
12.5 -0.133185
12.51 -0.126206
12.52 -0.118268
12.53 -0.10936
12.54 -0.0993256
12.55 -0.0880462
12.56 -0.0755856
12.57 -0.0617407
12.58 -0.0467345
12.59 -0.0305661
12.6 -0.0133837
12.61 0.00456392
12.62 0.0231282
12.63 0.041945
12.64 0.0607352
12.65 0.0791389
12.66 0.0968736
12.67 0.113451
12.68 0.128715
12.69 0.14224
12.7 0.153804
12.71 0.163311
12.72 0.170338
12.73 0.175132
12.74 0.177439
12.75 0.177441
12.76 0.17532
12.77 0.171074
12.78 0.165204
12.79 0.157824
12.8 0.149383
12.81 0.140219
12.82 0.130686
12.83 0.121165
12.84 0.112022
12.85 0.103552
12.86 0.0960104
12.87 0.0897054
