# xPDFsuite Configuration #
[PDF]
wavelength = 0.1
dataformat = QA
inputfile = B3_Bronze-3nm_ss_033.chi
backgroundfile = B3_Li-bkg_DD155_two_ss_att.chi
mode = xray
bgscale = 0.985
composition = Ti O2
outputtype = gr
qmaxinst = 23.5
qmin = 0.1
qmax = 23.0
rmax = 40.0
rmin = 0.0
rstep = 0.01
rpoly = 0.9

[Misc]
inputdir = E:/Beamtime/PETRA-III_September-2019/BeamData/processed/Run1/B3/integration_20210218/chi/chi_w_sigmas/chi_scaled
savedir = E:/Beamtime/PETRA-III_September-2019/BeamData/processed/Run1/B3/integration_20210218
backgroundfilefull = E:/Beamtime/PETRA-III_September-2019/BeamData/processed/Run1/B3/integration_20210218/chi/chi_w_sigmas/chi_scaled/B3_Li-bkg_DD155_two_ss_att.chi

#### start data
#S 1
#L r($\AA$)  G($\AA^{-2}$)
0 0
0.01 0.00311815
0.02 0.00607203
0.03 0.00869534
0.04 0.0108394
0.05 0.012433
0.06 0.0132971
0.07 0.0134867
0.08 0.0129261
0.09 0.0116665
0.1 0.00980158
0.11 0.00736756
0.12 0.00456357
0.13 0.00150113
0.14 -0.00163438
0.15 -0.00468778
0.16 -0.00746265
0.17 -0.00984941
0.18 -0.011668
0.19 -0.0128432
0.2 -0.01332
0.21 -0.0129966
0.22 -0.0119721
0.23 -0.0102036
0.24 -0.007831
0.25 -0.00495668
0.26 -0.0017021
0.27 0.00174108
0.28 0.00521046
0.29 0.00851664
0.3 0.0114892
0.31 0.0139202
0.32 0.015724
0.33 0.0166644
0.34 0.0167253
0.35 0.0157996
0.36 0.013801
0.37 0.0108179
0.38 0.00671654
0.39 0.00167848
0.4 -0.00428311
0.41 -0.0110818
0.42 -0.018543
0.43 -0.026626
0.44 -0.0351014
0.45 -0.0438494
0.46 -0.0526885
0.47 -0.0614554
0.48 -0.069924
0.49 -0.0779446
0.5 -0.085275
0.51 -0.091691
0.52 -0.0970424
0.53 -0.100903
0.54 -0.103232
0.55 -0.103618
0.56 -0.101846
0.57 -0.0977753
0.58 -0.0908471
0.59 -0.0812153
0.6 -0.0683849
0.61 -0.0523587
0.62 -0.0331368
0.63 -0.0103724
0.64 0.0154394
0.65 0.0444989
0.66 0.0763152
0.67 0.110526
0.68 0.146788
0.69 0.184314
0.7 0.22254
0.71 0.260601
0.72 0.297714
0.73 0.332814
0.74 0.365276
0.75 0.393752
0.76 0.417743
0.77 0.436384
0.78 0.448666
0.79 0.454725
0.8 0.453219
0.81 0.444811
0.82 0.429195
0.83 0.406422
0.84 0.377554
0.85 0.342375
0.86 0.302552
0.87 0.258759
0.88 0.212224
0.89 0.164293
0.9 0.116236
0.91 0.0693629
0.92 0.0249778
0.93 -0.0156914
0.94 -0.0520205
0.95 -0.0824375
0.96 -0.10724
0.97 -0.125618
0.98 -0.13773
0.99 -0.144177
1 -0.144883
1.01 -0.141446
1.02 -0.134533
1.03 -0.12566
1.04 -0.116192
1.05 -0.107779
1.06 -0.101733
1.07 -0.0998122
1.08 -0.103175
1.09 -0.112739
1.1 -0.130049
1.11 -0.154673
1.12 -0.187685
1.13 -0.228238
1.14 -0.275742
1.15 -0.329569
1.16 -0.387706
1.17 -0.448874
1.18 -0.510719
1.19 -0.571187
1.2 -0.627574
1.21 -0.678115
1.22 -0.71944
1.23 -0.750288
1.24 -0.768492
1.25 -0.771801
1.26 -0.760603
1.27 -0.731927
1.28 -0.687701
1.29 -0.627461
1.3 -0.551909
1.31 -0.463745
1.32 -0.363206
1.33 -0.254402
1.34 -0.139435
1.35 -0.0216686
1.36 0.0957674
1.37 0.208956
1.38 0.315269
1.39 0.411065
1.4 0.493409
1.41 0.560953
1.42 0.609276
1.43 0.639633
1.44 0.64941
1.45 0.638999
1.46 0.609707
1.47 0.560357
1.48 0.495129
1.49 0.414451
1.5 0.321771
1.51 0.220076
1.52 0.111985
1.53 0.00138594
1.54 -0.108647
1.55 -0.214834
1.56 -0.314534
1.57 -0.40423
1.58 -0.483016
1.59 -0.547665
1.6 -0.598016
1.61 -0.633347
1.62 -0.652471
1.63 -0.657505
1.64 -0.647453
1.65 -0.625074
1.66 -0.59161
1.67 -0.548646
1.68 -0.499064
1.69 -0.444297
1.7 -0.387124
1.71 -0.329382
1.72 -0.273129
1.73 -0.219685
1.74 -0.170951
1.75 -0.127282
1.76 -0.0895194
1.77 -0.0579492
1.78 -0.0318747
1.79 -0.0116045
1.8 0.00448761
1.81 0.0170726
1.82 0.027475
1.83 0.0370062
1.84 0.0470346
1.85 0.0587023
1.86 0.0732352
1.87 0.0915417
1.88 0.113985
1.89 0.141526
1.9 0.173494
1.91 0.210033
1.92 0.250292
1.93 0.293276
1.94 0.337924
1.95 0.382654
1.96 0.425848
1.97 0.4658
1.98 0.501018
1.99 0.529145
2 0.549571
2.01 0.559932
2.02 0.559742
2.03 0.548278
2.04 0.524064
2.05 0.488398
2.06 0.439989
2.07 0.380504
2.08 0.310634
2.09 0.231113
2.1 0.144343
2.11 0.0511815
2.12 -0.0457725
2.13 -0.144745
2.14 -0.243508
2.15 -0.340195
2.16 -0.432253
2.17 -0.518293
2.18 -0.596365
2.19 -0.664569
2.2 -0.722626
2.21 -0.767724
2.22 -0.800784
2.23 -0.820494
2.24 -0.826502
2.25 -0.819977
2.26 -0.799138
2.27 -0.766596
2.28 -0.72203
2.29 -0.666556
2.3 -0.601865
2.31 -0.527993
2.32 -0.447518
2.33 -0.361195
2.34 -0.270776
2.35 -0.177837
2.36 -0.0838338
2.37 0.00959197
2.38 0.100821
2.39 0.188333
2.4 0.27092
2.41 0.346449
2.42 0.414556
2.43 0.473142
2.44 0.521651
2.45 0.5594
2.46 0.584588
2.47 0.598201
2.48 0.598465
2.49 0.586332
2.5 0.561957
2.51 0.524991
2.52 0.47752
2.53 0.419219
2.54 0.352405
2.55 0.278322
2.56 0.198519
2.57 0.115341
2.58 0.0305419
2.59 -0.0535326
2.6 -0.134834
2.61 -0.210924
2.62 -0.280485
2.63 -0.340451
2.64 -0.390369
2.65 -0.428397
2.66 -0.45322
2.67 -0.465425
2.68 -0.46268
2.69 -0.44721
2.7 -0.418594
2.71 -0.377884
2.72 -0.327184
2.73 -0.266796
2.74 -0.199999
2.75 -0.128265
2.76 -0.0541007
2.77 0.0203015
2.78 0.0923861
2.79 0.160396
2.8 0.221989
2.81 0.27558
2.82 0.320282
2.83 0.353887
2.84 0.377268
2.85 0.389121
2.86 0.39028
2.87 0.381604
2.88 0.36324
2.89 0.337631
2.9 0.305557
2.91 0.269311
2.92 0.230659
2.93 0.191564
2.94 0.153819
2.95 0.119431
2.96 0.0897084
2.97 0.0658607
2.98 0.0493213
2.99 0.0398427
3 0.0386309
3.01 0.0446966
3.02 0.0577354
3.03 0.0770897
3.04 0.101055
3.05 0.128745
3.06 0.158117
3.07 0.187642
3.08 0.215417
3.09 0.240092
3.1 0.259423
3.11 0.272729
3.12 0.278554
3.13 0.275916
3.14 0.265087
3.15 0.244528
3.16 0.215832
3.17 0.178829
3.18 0.134486
3.19 0.0842948
3.2 0.028882
3.21 -0.0295788
3.22 -0.0898517
3.23 -0.150201
3.24 -0.209256
3.25 -0.265232
3.26 -0.317353
3.27 -0.3642
3.28 -0.405182
3.29 -0.440084
3.3 -0.468007
3.31 -0.489938
3.32 -0.505576
3.33 -0.515921
3.34 -0.521805
3.35 -0.523881
3.36 -0.523576
3.37 -0.521698
3.38 -0.519427
3.39 -0.517609
3.4 -0.517149
3.41 -0.518427
3.42 -0.522042
3.43 -0.527875
3.44 -0.535798
3.45 -0.545438
3.46 -0.555985
3.47 -0.566584
3.48 -0.576122
3.49 -0.58343
3.5 -0.587003
3.51 -0.586041
3.52 -0.578483
3.53 -0.563996
3.54 -0.541318
3.55 -0.509494
3.56 -0.468941
3.57 -0.41809
3.58 -0.358505
3.59 -0.290034
3.6 -0.213536
3.61 -0.130638
3.62 -0.0418805
3.63 0.0503064
3.64 0.144515
3.65 0.238681
3.66 0.331085
3.67 0.419274
3.68 0.502046
3.69 0.577183
3.7 0.6433
3.71 0.699671
3.72 0.743932
3.73 0.776993
3.74 0.79723
3.75 0.805148
3.76 0.80129
3.77 0.784964
3.78 0.758408
3.79 0.72139
3.8 0.675741
3.81 0.622695
3.82 0.563103
3.83 0.498989
3.84 0.431192
3.85 0.361343
3.86 0.290547
3.87 0.219976
3.88 0.150508
3.89 0.0831977
3.9 0.0185616
3.91 -0.0428094
3.92 -0.100261
3.93 -0.153888
3.94 -0.202867
3.95 -0.247536
3.96 -0.287599
3.97 -0.322803
3.98 -0.353533
3.99 -0.378995
4 -0.399748
4.01 -0.415389
4.02 -0.425691
4.03 -0.430981
4.04 -0.430254
4.05 -0.42421
4.06 -0.412308
4.07 -0.394489
4.08 -0.371181
4.09 -0.341619
4.1 -0.306872
4.11 -0.266747
4.12 -0.221808
4.13 -0.172819
4.14 -0.120003
4.15 -0.0646466
4.16 -0.00738358
4.17 0.05067
4.18 0.108548
4.19 0.165017
4.2 0.219246
4.21 0.269942
4.22 0.316291
4.23 0.357618
4.24 0.392625
4.25 0.421551
4.26 0.443261
4.27 0.458055
4.28 0.465965
4.29 0.466661
4.3 0.461309
4.31 0.449684
4.32 0.433022
4.33 0.411984
4.34 0.387275
4.35 0.360122
4.36 0.331178
4.37 0.301535
4.38 0.271945
4.39 0.243232
4.4 0.215873
4.41 0.190613
4.42 0.167549
4.43 0.146967
4.44 0.128967
4.45 0.113221
4.46 0.0998294
4.47 0.0881448
4.48 0.0778889
4.49 0.0685641
4.5 0.059664
4.51 0.0507123
4.52 0.0412892
4.53 0.0310008
4.54 0.0195561
4.55 0.00687947
4.56 -0.00727111
4.57 -0.0226167
4.58 -0.0390778
4.59 -0.0562875
4.6 -0.0738354
4.61 -0.0911935
4.62 -0.107847
4.63 -0.123119
4.64 -0.136431
4.65 -0.147317
4.66 -0.154908
4.67 -0.15918
4.68 -0.159374
4.69 -0.155471
4.7 -0.147419
4.71 -0.134849
4.72 -0.118423
4.73 -0.0979342
4.74 -0.0740854
4.75 -0.0473081
4.76 -0.0180166
4.77 0.0129447
4.78 0.0451139
4.79 0.0777152
4.8 0.110178
4.81 0.141849
4.82 0.172342
4.83 0.201015
4.84 0.227726
4.85 0.252182
4.86 0.274166
4.87 0.293894
4.88 0.311102
4.89 0.326257
4.9 0.339451
4.91 0.350949
4.92 0.361164
4.93 0.370234
4.94 0.378603
4.95 0.386458
4.96 0.394016
4.97 0.401422
4.98 0.408718
4.99 0.415898
5 0.422845
5.01 0.429364
5.02 0.435255
5.03 0.440071
5.04 0.443612
5.05 0.445372
5.06 0.444995
5.07 0.44224
5.08 0.436432
5.09 0.427693
5.1 0.41548
5.11 0.399822
5.12 0.380765
5.13 0.358019
5.14 0.332174
5.15 0.303104
5.16 0.271362
5.17 0.237332
5.18 0.201339
5.19 0.164073
5.2 0.125921
5.21 0.0875003
5.22 0.0492819
5.23 0.0118155
5.24 -0.0245827
5.25 -0.0593647
5.26 -0.0923833
5.27 -0.123384
5.28 -0.152119
5.29 -0.17876
5.3 -0.203013
5.31 -0.225233
5.32 -0.245455
5.33 -0.263822
5.34 -0.280694
5.35 -0.296087
5.36 -0.310412
5.37 -0.323796
5.38 -0.336421
5.39 -0.348475
5.4 -0.359969
5.41 -0.371025
5.42 -0.381591
5.43 -0.391604
5.44 -0.401007
5.45 -0.409538
5.46 -0.417149
5.47 -0.423561
5.48 -0.428594
5.49 -0.43215
5.5 -0.433844
5.51 -0.433799
5.52 -0.43174
5.53 -0.427711
5.54 -0.4218
5.55 -0.413885
5.56 -0.404355
5.57 -0.393229
5.58 -0.38086
5.59 -0.36754
5.6 -0.353548
5.61 -0.339293
5.62 -0.325116
5.63 -0.311379
5.64 -0.298392
5.65 -0.286557
5.66 -0.275993
5.67 -0.267104
5.68 -0.259912
5.69 -0.254545
5.7 -0.251156
5.71 -0.249527
5.72 -0.24983
5.73 -0.25174
5.74 -0.255157
5.75 -0.259917
5.76 -0.265683
5.77 -0.272333
5.78 -0.279505
5.79 -0.286989
5.8 -0.294521
5.81 -0.301892
5.82 -0.308834
5.83 -0.315217
5.84 -0.320843
5.85 -0.325551
5.86 -0.329308
5.87 -0.331836
5.88 -0.333226
5.89 -0.333297
5.9 -0.331988
5.91 -0.329322
5.92 -0.325021
5.93 -0.319238
5.94 -0.31175
5.95 -0.302525
5.96 -0.291576
5.97 -0.278607
5.98 -0.263827
5.99 -0.247001
6 -0.228211
6.01 -0.207533
6.02 -0.184843
6.03 -0.160494
6.04 -0.134462
6.05 -0.107089
6.06 -0.0786457
6.07 -0.0494227
6.08 -0.0198761
6.09 0.00957575
6.1 0.0384497
6.11 0.0662861
6.12 0.092452
6.13 0.116675
6.14 0.138187
6.15 0.156816
6.16 0.17216
6.17 0.183749
6.18 0.191804
6.19 0.195731
6.2 0.196035
6.21 0.192726
6.22 0.186016
6.23 0.1766
6.24 0.16465
6.25 0.151117
6.26 0.136578
6.27 0.121863
6.28 0.107703
6.29 0.0951251
6.3 0.0846954
6.31 0.0773056
6.32 0.0736779
6.33 0.0740468
6.34 0.0795531
6.35 0.0897624
6.36 0.105255
6.37 0.125898
6.38 0.151224
6.39 0.181452
6.4 0.215402
6.41 0.252776
6.42 0.292579
6.43 0.333885
6.44 0.375726
6.45 0.417031
6.46 0.456648
6.47 0.493554
6.48 0.526891
6.49 0.555259
6.5 0.578484
6.51 0.595224
6.52 0.605367
6.53 0.608602
6.54 0.604165
6.55 0.592912
6.56 0.574123
6.57 0.548786
6.58 0.517265
6.59 0.479887
6.6 0.437956
6.61 0.391736
6.62 0.34258
6.63 0.291269
6.64 0.238757
6.65 0.186001
6.66 0.133937
6.67 0.0833062
6.68 0.034864
6.69 -0.0106463
6.7 -0.0530303
6.71 -0.0913409
6.72 -0.125838
6.73 -0.156108
6.74 -0.182065
6.75 -0.204111
6.76 -0.221746
6.77 -0.235825
6.78 -0.246291
6.79 -0.253515
6.8 -0.258008
6.81 -0.259754
6.82 -0.259461
6.83 -0.257242
6.84 -0.253458
6.85 -0.248415
6.86 -0.2422
6.87 -0.235138
6.88 -0.227279
6.89 -0.218771
6.9 -0.209703
6.91 -0.200078
6.92 -0.190006
6.93 -0.179473
6.94 -0.168548
6.95 -0.157283
6.96 -0.145724
6.97 -0.133986
6.98 -0.122164
6.99 -0.110406
7 -0.098859
7.01 -0.0877362
7.02 -0.0771681
7.03 -0.0674417
7.04 -0.0586817
7.05 -0.0510802
7.06 -0.0448824
7.07 -0.0400666
7.08 -0.0369372
7.09 -0.0353639
7.1 -0.0354045
7.11 -0.0370515
7.12 -0.0400466
7.13 -0.0444034
7.14 -0.0497251
7.15 -0.055805
7.16 -0.0623081
7.17 -0.0688867
7.18 -0.0751331
7.19 -0.0807191
7.2 -0.0852395
7.21 -0.0883116
7.22 -0.0897624
7.23 -0.0890141
7.24 -0.0861656
7.25 -0.0808707
7.26 -0.073075
7.27 -0.0629142
7.28 -0.0501249
7.29 -0.0351968
7.3 -0.0181168
7.31 0.000755433
7.32 0.0210513
7.33 0.042521
7.34 0.0646255
7.35 0.0870034
7.36 0.109181
7.37 0.130773
7.38 0.15125
7.39 0.170385
7.4 0.187657
7.41 0.202873
7.42 0.215823
7.43 0.226106
7.44 0.233905
7.45 0.238825
7.46 0.241092
7.47 0.24072
7.48 0.237646
7.49 0.232288
7.5 0.224521
7.51 0.214795
7.52 0.203269
7.53 0.190136
7.54 0.175789
7.55 0.160334
7.56 0.144156
7.57 0.127456
7.58 0.110486
7.59 0.0934737
7.6 0.0766539
7.61 0.0602016
7.62 0.0443162
7.63 0.0291907
7.64 0.0148997
7.65 0.0017477
7.66 -0.0103
7.67 -0.0210378
7.68 -0.0303629
7.69 -0.0382964
7.7 -0.0445462
7.71 -0.0493009
7.72 -0.052391
7.73 -0.0538549
7.74 -0.0538036
7.75 -0.0521052
7.76 -0.0490715
7.77 -0.0446934
7.78 -0.0392035
7.79 -0.0328261
7.8 -0.0257317
7.81 -0.0182677
7.82 -0.0106935
7.83 -0.00334694
7.84 0.00347996
7.85 0.00936809
7.86 0.0141297
7.87 0.0173121
7.88 0.0187484
7.89 0.0182295
7.9 0.0154072
7.91 0.0104288
7.92 0.00295052
7.93 -0.00678657
7.94 -0.018735
7.95 -0.0328348
7.96 -0.0486427
7.97 -0.066071
7.98 -0.0845808
7.99 -0.103827
8 -0.123347
8.01 -0.142695
8.02 -0.161325
8.03 -0.178864
8.04 -0.194849
8.05 -0.208827
8.06 -0.220688
8.07 -0.229801
8.08 -0.236364
8.09 -0.240112
8.1 -0.241037
8.11 -0.23945
8.12 -0.235147
8.13 -0.228781
8.14 -0.220486
8.15 -0.210707
8.16 -0.199919
8.17 -0.188491
8.18 -0.17695
8.19 -0.165717
8.2 -0.155213
8.21 -0.145718
8.22 -0.137681
8.23 -0.131103
8.24 -0.126256
8.25 -0.123075
8.26 -0.121436
8.27 -0.121301
8.28 -0.122228
8.29 -0.123984
8.3 -0.126083
8.31 -0.128096
8.32 -0.129461
8.33 -0.129781
8.34 -0.128405
8.35 -0.124989
8.36 -0.119145
8.37 -0.110331
8.38 -0.0986414
8.39 -0.0835205
8.4 -0.0652523
8.41 -0.0438277
8.42 -0.0192961
8.43 0.00775803
8.44 0.0372685
8.45 0.0684698
8.46 0.100908
8.47 0.133943
8.48 0.166934
8.49 0.199132
8.5 0.229982
8.51 0.258812
8.52 0.28497
8.53 0.308244
8.54 0.327688
8.55 0.343535
8.56 0.355303
8.57 0.36291
8.58 0.366683
8.59 0.366183
8.6 0.362254
8.61 0.354903
8.62 0.344643
8.63 0.332065
8.64 0.317447
8.65 0.30159
8.66 0.284913
8.67 0.268015
8.68 0.251357
8.69 0.235481
8.7 0.220656
8.71 0.207319
8.72 0.195635
8.73 0.185697
8.74 0.177739
8.75 0.171491
8.76 0.167044
8.77 0.164077
8.78 0.162353
8.79 0.161633
8.8 0.161487
8.81 0.161605
8.82 0.161582
8.83 0.161078
8.84 0.159675
8.85 0.157179
8.86 0.153141
8.87 0.147488
8.88 0.140014
8.89 0.130527
8.9 0.119188
8.91 0.105745
8.92 0.0905324
8.93 0.0735968
8.94 0.0551149
8.95 0.0354469
8.96 0.014727
8.97 -0.00658875
8.98 -0.028216
8.99 -0.0497678
9 -0.0709298
9.01 -0.0912193
9.02 -0.110417
9.03 -0.128103
9.04 -0.143955
9.05 -0.157843
9.06 -0.169189
9.07 -0.178142
9.08 -0.184305
9.09 -0.187623
9.1 -0.18817
9.11 -0.185562
9.12 -0.180244
9.13 -0.172006
9.14 -0.161113
9.15 -0.147815
9.16 -0.132108
9.17 -0.114554
9.18 -0.0952598
9.19 -0.0746995
9.2 -0.0532396
9.21 -0.0312563
9.22 -0.00920559
9.23 0.012472
9.24 0.0333606
9.25 0.0530759
9.26 0.0710909
9.27 0.0872562
9.28 0.100974
9.29 0.112183
9.3 0.120625
9.31 0.125972
9.32 0.128456
9.33 0.127631
9.34 0.123893
9.35 0.117229
9.36 0.107722
9.37 0.0958465
9.38 0.0815462
9.39 0.0654352
9.4 0.0477349
9.41 0.028814
9.42 0.00910626
9.43 -0.011106
9.44 -0.0314146
9.45 -0.0515289
9.46 -0.0711515
9.47 -0.090118
9.48 -0.10812
9.49 -0.125178
9.5 -0.141141
9.51 -0.156011
9.52 -0.169884
9.53 -0.182703
9.54 -0.194716
9.55 -0.205965
9.56 -0.216624
9.57 -0.226836
9.58 -0.236685
9.59 -0.246306
9.6 -0.255731
9.61 -0.264985
9.62 -0.274039
9.63 -0.282771
9.64 -0.291084
9.65 -0.298728
9.66 -0.305496
9.67 -0.311142
9.68 -0.315234
9.69 -0.317657
9.7 -0.317865
9.71 -0.315733
9.72 -0.310995
9.73 -0.303244
9.74 -0.292662
9.75 -0.278771
9.76 -0.261897
9.77 -0.242045
9.78 -0.219281
9.79 -0.194148
9.8 -0.166695
9.81 -0.137633
9.82 -0.107367
9.83 -0.0764844
9.84 -0.0455783
9.85 -0.0153384
9.86 0.0137073
9.87 0.0409196
9.88 0.06568
9.89 0.0877634
9.9 0.106251
9.91 0.121342
9.92 0.132539
9.93 0.139745
9.94 0.143233
9.95 0.142553
9.96 0.138493
9.97 0.131018
9.98 0.120615
9.99 0.107833
10 0.0929155
10.01 0.0766464
10.02 0.0594112
10.03 0.0418005
10.04 0.0242727
10.05 0.0073495
10.06 -0.00867002
10.07 -0.0233459
10.08 -0.0364837
10.09 -0.0479473
10.1 -0.0574602
10.11 -0.0652256
10.12 -0.071063
10.13 -0.0752086
10.14 -0.0777907
10.15 -0.0788841
10.16 -0.0788336
10.17 -0.077699
10.18 -0.0757753
10.19 -0.073212
10.2 -0.0701397
10.21 -0.0667176
10.22 -0.0629804
10.23 -0.0589986
10.24 -0.0547621
10.25 -0.050221
10.26 -0.0453462
10.27 -0.0399927
10.28 -0.0341211
10.29 -0.027613
10.3 -0.0203623
10.31 -0.0123788
10.32 -0.003508
10.33 0.00612356
10.34 0.0165222
10.35 0.0275837
10.36 0.0391271
10.37 0.0510126
10.38 0.062965
10.39 0.0747384
10.4 0.0860327
10.41 0.0966216
10.42 0.10608
10.43 0.114309
10.44 0.120961
10.45 0.125891
10.46 0.129066
10.47 0.130204
10.48 0.129587
10.49 0.127121
10.5 0.123071
10.51 0.117703
10.52 0.111223
10.53 0.10411
10.54 0.0966991
10.55 0.0894517
10.56 0.0827564
10.57 0.0771279
10.58 0.0727991
10.59 0.0702859
10.6 0.0697209
10.61 0.0712883
10.62 0.0752406
10.63 0.0813159
10.64 0.0896947
10.65 0.099949
10.66 0.111847
10.67 0.125046
10.68 0.138998
10.69 0.153254
10.7 0.167224
10.71 0.180366
10.72 0.192038
10.73 0.201899
10.74 0.209128
10.75 0.213639
10.76 0.214949
10.77 0.212758
10.78 0.207249
10.79 0.197858
10.8 0.185224
10.81 0.169285
10.82 0.150383
10.83 0.129085
10.84 0.105559
10.85 0.0806405
10.86 0.0547525
10.87 0.0285456
10.88 0.00255995
10.89 -0.0225311
10.9 -0.0463454
10.91 -0.0682892
10.92 -0.0880119
10.93 -0.105318
10.94 -0.119666
10.95 -0.131304
10.96 -0.139879
10.97 -0.145592
10.98 -0.148608
10.99 -0.148866
11 -0.146917
11.01 -0.142775
11.02 -0.136904
11.03 -0.129593
11.04 -0.121071
11.05 -0.111744
11.06 -0.101784
11.07 -0.0914811
11.08 -0.0810015
11.09 -0.070495
11.1 -0.0600556
11.11 -0.0497557
11.12 -0.0396031
11.13 -0.0295948
11.14 -0.0197051
11.15 -0.0098856
11.16 -9.98108e-05
11.17 0.00969107
11.18 0.0195045
11.19 0.029335
11.2 0.0391502
11.21 0.0488713
11.22 0.0584085
11.23 0.0676199
11.24 0.076324
11.25 0.0843973
11.26 0.0914989
11.27 0.0975637
11.28 0.102301
11.29 0.105518
11.3 0.107166
11.31 0.106863
11.32 0.104797
11.33 0.100761
11.34 0.0948325
11.35 0.0871779
11.36 0.0777362
11.37 0.0669348
11.38 0.0548803
11.39 0.0419408
11.4 0.0284434
11.41 0.0147289
11.42 0.00117038
11.43 -0.0118417
11.44 -0.0239753
11.45 -0.0349529
11.46 -0.0443555
11.47 -0.0521552
11.48 -0.0579728
11.49 -0.0618498
11.5 -0.0637467
11.51 -0.0635563
11.52 -0.0615991
11.53 -0.0578062
11.54 -0.0525656
11.55 -0.046087
11.56 -0.0386304
11.57 -0.0305847
11.58 -0.0222211
11.59 -0.013903
11.6 -0.00592242
11.61 0.00139405
11.62 0.00788415
11.63 0.0131888
11.64 0.0172937
11.65 0.0200281
11.66 0.0213087
11.67 0.0212609
11.68 0.019722
11.69 0.0169893
11.7 0.0130962
11.71 0.00821828
11.72 0.00259347
11.73 -0.00366974
11.74 -0.0102802
11.75 -0.017075
11.76 -0.023845
11.77 -0.0304353
11.78 -0.0366439
11.79 -0.0423973
11.8 -0.0475469
11.81 -0.0520306
11.82 -0.0558305
11.83 -0.058832
11.84 -0.0611312
11.85 -0.0626593
11.86 -0.0634775
11.87 -0.06363
11.88 -0.0630866
11.89 -0.0619632
11.9 -0.060221
11.91 -0.0579269
11.92 -0.0551019
11.93 -0.0517154
11.94 -0.0478371
11.95 -0.0434051
11.96 -0.0384649
11.97 -0.0330123
11.98 -0.0270207
11.99 -0.0205607
12 -0.013594
12.01 -0.00621051
12.02 0.00154987
12.03 0.00962316
12.04 0.0178951
12.05 0.026275
12.06 0.0346237
12.07 0.0428093
12.08 0.050664
12.09 0.0580807
12.1 0.0648171
12.11 0.0708116
12.12 0.0758835
12.13 0.079888
12.14 0.0828232
12.15 0.0844189
12.16 0.0848154
12.17 0.0838886
12.18 0.0816537
12.19 0.0782324
12.2 0.0735162
12.21 0.0677724
12.22 0.0610088
12.23 0.0533834
12.24 0.0450632
12.25 0.0361185
12.26 0.0267693
12.27 0.0171104
12.28 0.00729018
12.29 -0.00258236
12.3 -0.0124013
12.31 -0.0220972
12.32 -0.0315934
12.33 -0.0408553
12.34 -0.0498628
12.35 -0.0585764
12.36 -0.0670278
12.37 -0.0751868
12.38 -0.0830779
12.39 -0.0907011
12.4 -0.0980266
12.41 -0.105069
12.42 -0.111752
12.43 -0.118054
12.44 -0.123901
12.45 -0.129168
12.46 -0.13382
12.47 -0.137638
12.48 -0.14058
12.49 -0.14249
12.5 -0.143184
12.51 -0.142672
12.52 -0.140653
12.53 -0.137224
12.54 -0.132257
12.55 -0.125697
12.56 -0.117704
12.57 -0.108113
12.58 -0.0972409
12.59 -0.0851334
12.6 -0.0719868
12.61 -0.0580784
12.62 -0.0435718
12.63 -0.0288233
12.64 -0.01409
12.65 0.000310951
12.66 0.0141427
12.67 0.0270082
12.68 0.0387983
12.69 0.0491924
12.7 0.0580462
12.71 0.0653166
12.72 0.0707228
12.73 0.074493
12.74 0.0764897
12.75 0.0768986
12.76 0.0759
12.77 0.0735683
12.78 0.0702922
12.79 0.066236
12.8 0.0617531
12.81 0.0571229
12.82 0.0526718
12.83 0.0486497
12.84 0.0453939
12.85 0.0430899
12.86 0.041926
12.87 0.0421496
