# xPDFsuite Configuration #
[PDF]
wavelength = 0.1
dataformat = QA
inputfile = B3_Bronze-3nm_ss_041.chi
backgroundfile = B3_Li-bkg_DD155_two_ss_att.chi
mode = xray
bgscale = 0.985
composition = Ti O2
outputtype = gr
qmaxinst = 23.5
qmin = 0.1
qmax = 23.0
rmax = 40.0
rmin = 0.0
rstep = 0.01
rpoly = 0.9

[Misc]
inputdir = E:/Beamtime/PETRA-III_September-2019/BeamData/processed/Run1/B3/integration_20210218/chi/chi_w_sigmas/chi_scaled
savedir = E:/Beamtime/PETRA-III_September-2019/BeamData/processed/Run1/B3/integration_20210218
backgroundfilefull = E:/Beamtime/PETRA-III_September-2019/BeamData/processed/Run1/B3/integration_20210218/chi/chi_w_sigmas/chi_scaled/B3_Li-bkg_DD155_two_ss_att.chi

#### start data
#S 1
#L r($\AA$)  G($\AA^{-2}$)
0 0
0.01 0.00280614
0.02 0.00546482
0.03 0.00782678
0.04 0.00975849
0.05 0.0111959
0.06 0.0119782
0.07 0.0121543
0.08 0.0116562
0.09 0.0105293
0.1 0.00885749
0.11 0.00667268
0.12 0.0041536
0.13 0.00139994
0.14 -0.00142185
0.15 -0.00417229
0.16 -0.00667491
0.17 -0.00883056
0.18 -0.0104769
0.19 -0.0115453
0.2 -0.0119854
0.21 -0.011704
0.22 -0.010789
0.23 -0.00920019
0.24 -0.00706231
0.25 -0.00446645
0.26 -0.00152065
0.27 0.00160185
0.28 0.00475526
0.29 0.0077669
0.3 0.0104813
0.31 0.0127075
0.32 0.0143643
0.33 0.0152323
0.34 0.0152916
0.35 0.0144382
0.36 0.0125849
0.37 0.00980738
0.38 0.00597061
0.39 0.00123744
0.4 -0.0043889
0.41 -0.0108363
0.42 -0.0179432
0.43 -0.0256824
0.44 -0.0338332
0.45 -0.0422849
0.46 -0.0508614
0.47 -0.0593987
0.48 -0.0676751
0.49 -0.0755319
0.5 -0.0827238
0.51 -0.0890182
0.52 -0.0942566
0.53 -0.098005
0.54 -0.100216
0.55 -0.100474
0.56 -0.0985614
0.57 -0.094342
0.58 -0.0872627
0.59 -0.0774892
0.6 -0.0645442
0.61 -0.048451
0.62 -0.0292307
0.63 -0.006574
0.64 0.01901
0.65 0.0476777
0.66 0.0789212
0.67 0.112358
0.68 0.147608
0.69 0.183903
0.7 0.220644
0.71 0.256997
0.72 0.29219
0.73 0.32518
0.74 0.355396
0.75 0.381526
0.76 0.40314
0.77 0.419436
0.78 0.429482
0.79 0.433475
0.8 0.43018
0.81 0.4203
0.82 0.40361
0.83 0.380233
0.84 0.351233
0.85 0.316502
0.86 0.277652
0.87 0.23539
0.88 0.190928
0.89 0.145534
0.9 0.100493
0.91 0.0569749
0.92 0.0162289
0.93 -0.0206254
0.94 -0.0530715
0.95 -0.0796562
0.96 -0.100781
0.97 -0.115759
0.98 -0.124855
0.99 -0.128733
1 -0.127465
1.01 -0.122628
1.02 -0.114992
1.03 -0.106065
1.04 -0.0971847
1.05 -0.0900428
1.06 -0.0858179
1.07 -0.0862591
1.08 -0.0923998
1.09 -0.105054
1.1 -0.125665
1.11 -0.153657
1.12 -0.189978
1.13 -0.23365
1.14 -0.283971
1.15 -0.34016
1.16 -0.400161
1.17 -0.462538
1.18 -0.524925
1.19 -0.585215
1.2 -0.640634
1.21 -0.689501
1.22 -0.728368
1.23 -0.756099
1.24 -0.770564
1.25 -0.769576
1.26 -0.753662
1.27 -0.719908
1.28 -0.670401
1.29 -0.60478
1.3 -0.52388
1.31 -0.430504
1.32 -0.325043
1.33 -0.211678
1.34 -0.0926301
1.35 0.0286408
1.36 0.148984
1.37 0.264314
1.38 0.37207
1.39 0.468516
1.4 0.550712
1.41 0.617356
1.42 0.663932
1.43 0.691838
1.44 0.698425
1.45 0.684159
1.46 0.650431
1.47 0.596072
1.48 0.525412
1.49 0.438921
1.5 0.340167
1.51 0.232238
1.52 0.117863
1.53 0.00104355
1.54 -0.115011
1.55 -0.226903
1.56 -0.331879
1.57 -0.42624
1.58 -0.509036
1.59 -0.576826
1.6 -0.629403
1.61 -0.665942
1.62 -0.685087
1.63 -0.68902
1.64 -0.676531
1.65 -0.650479
1.66 -0.612072
1.67 -0.562862
1.68 -0.505915
1.69 -0.442594
1.7 -0.37593
1.71 -0.307861
1.72 -0.240616
1.73 -0.175761
1.74 -0.115384
1.75 -0.0601169
1.76 -0.0110484
1.77 0.0312431
1.78 0.0672698
1.79 0.0963026
1.8 0.119894
1.81 0.1384
1.82 0.15294
1.83 0.164811
1.84 0.174961
1.85 0.184767
1.86 0.195237
1.87 0.207338
1.88 0.221606
1.89 0.238857
1.9 0.25885
1.91 0.281748
1.92 0.307002
1.93 0.3339
1.94 0.361575
1.95 0.388835
1.96 0.414316
1.97 0.436642
1.98 0.454584
1.99 0.466136
2 0.470845
2.01 0.466687
2.02 0.453302
2.03 0.430105
2.04 0.395879
2.05 0.351803
2.06 0.296847
2.07 0.232527
2.08 0.159535
2.09 0.0786448
2.1 -0.00800487
2.11 -0.0994616
2.12 -0.193413
2.13 -0.28817
2.14 -0.381613
2.15 -0.472114
2.16 -0.55715
2.17 -0.635567
2.18 -0.705506
2.19 -0.765184
2.2 -0.81445
2.21 -0.850552
2.22 -0.874517
2.23 -0.885086
2.24 -0.881968
2.25 -0.866366
2.26 -0.836553
2.27 -0.795155
2.28 -0.741885
2.29 -0.677888
2.3 -0.604867
2.31 -0.522919
2.32 -0.434616
2.33 -0.340773
2.34 -0.243173
2.35 -0.143414
2.36 -0.0430457
2.37 0.0563057
2.38 0.15293
2.39 0.245284
2.4 0.332142
2.41 0.411268
2.42 0.482355
2.43 0.54321
2.44 0.593301
2.45 0.631953
2.46 0.657301
2.47 0.670427
2.48 0.669489
2.49 0.655514
2.5 0.628674
2.51 0.588602
2.52 0.537479
2.53 0.47493
2.54 0.403347
2.55 0.323978
2.56 0.238363
2.57 0.148907
2.58 0.0573029
2.59 -0.0340429
2.6 -0.123098
2.61 -0.207439
2.62 -0.285691
2.63 -0.354845
2.64 -0.414364
2.65 -0.462397
2.66 -0.497585
2.67 -0.520428
2.68 -0.528544
2.69 -0.524029
2.7 -0.506356
2.71 -0.47643
2.72 -0.436233
2.73 -0.385835
2.74 -0.328418
2.75 -0.265226
2.76 -0.198589
2.77 -0.130609
2.78 -0.0635081
2.79 0.000894939
2.8 0.0605075
2.81 0.113778
2.82 0.159791
2.83 0.196544
2.84 0.224639
2.85 0.242865
2.86 0.251847
2.87 0.252259
2.88 0.244147
2.89 0.229592
2.9 0.2092
2.91 0.184927
2.92 0.158268
2.93 0.130856
2.94 0.104248
2.95 0.0800952
2.96 0.0595228
2.97 0.043533
2.98 0.0332835
2.99 0.0285812
3 0.0303437
3.01 0.0377402
3.02 0.0504564
3.03 0.0678607
3.04 0.088542
3.05 0.111627
3.06 0.135455
3.07 0.158701
3.08 0.179752
3.09 0.197566
3.1 0.21021
3.11 0.217266
3.12 0.217563
3.13 0.210382
3.14 0.196089
3.15 0.173499
3.16 0.1441
3.17 0.107877
3.18 0.0657764
3.19 0.0191331
3.2 -0.0313626
3.21 -0.0838902
3.22 -0.137317
3.23 -0.190182
3.24 -0.241381
3.25 -0.289389
3.26 -0.333707
3.27 -0.373196
3.28 -0.407504
3.29 -0.436581
3.3 -0.459823
3.31 -0.478192
3.32 -0.49159
3.33 -0.500964
3.34 -0.507092
3.35 -0.510638
3.36 -0.51275
3.37 -0.514158
3.38 -0.515738
3.39 -0.518101
3.4 -0.521858
3.41 -0.527117
3.42 -0.534134
3.43 -0.542551
3.44 -0.551987
3.45 -0.561755
3.46 -0.571018
3.47 -0.578567
3.48 -0.583388
3.49 -0.584223
3.5 -0.579534
3.51 -0.56877
3.52 -0.549798
3.53 -0.522672
3.54 -0.486291
3.55 -0.43998
3.56 -0.3845
3.57 -0.318577
3.58 -0.244126
3.59 -0.161326
3.6 -0.0713867
3.61 0.023873
3.62 0.123427
3.63 0.224846
3.64 0.326403
3.65 0.42591
3.66 0.521699
3.67 0.610992
3.68 0.692919
3.69 0.765138
3.7 0.826446
3.71 0.87634
3.72 0.912464
3.73 0.936149
3.74 0.945876
3.75 0.942461
3.76 0.9267
3.77 0.89812
3.78 0.859229
3.79 0.810011
3.8 0.752499
3.81 0.688085
3.82 0.617824
3.83 0.543772
3.84 0.46695
3.85 0.388977
3.86 0.310992
3.87 0.234236
3.88 0.159462
3.89 0.0878099
3.9 0.0196559
3.91 -0.0444409
3.92 -0.103854
3.93 -0.158811
3.94 -0.208461
3.95 -0.253266
3.96 -0.292945
3.97 -0.327268
3.98 -0.356682
3.99 -0.38034
4 -0.39886
4.01 -0.411804
4.02 -0.418921
4.03 -0.420561
4.04 -0.415619
4.05 -0.404854
4.06 -0.387671
4.07 -0.364005
4.08 -0.334332
4.09 -0.297827
4.1 -0.255678
4.11 -0.207701
4.12 -0.154546
4.13 -0.0970823
4.14 -0.0356212
4.15 0.0284041
4.16 0.0942208
4.17 0.160552
4.18 0.226293
4.19 0.289971
4.2 0.350674
4.21 0.406854
4.22 0.457578
4.23 0.502061
4.24 0.538728
4.25 0.567892
4.26 0.588144
4.27 0.599833
4.28 0.602959
4.29 0.59705
4.3 0.583495
4.31 0.561914
4.32 0.533779
4.33 0.499832
4.34 0.460848
4.35 0.418348
4.36 0.373038
4.37 0.326322
4.38 0.279139
4.39 0.232543
4.4 0.187256
4.41 0.14428
4.42 0.103926
4.43 0.066714
4.44 0.0329999
4.45 0.00255138
4.46 -0.0241684
4.47 -0.0478295
4.48 -0.0684922
4.49 -0.0865295
4.5 -0.102522
4.51 -0.116623
4.52 -0.129523
4.53 -0.141483
4.54 -0.152863
4.55 -0.163917
4.56 -0.174769
4.57 -0.185491
4.58 -0.196013
4.59 -0.206171
4.6 -0.21576
4.61 -0.224339
4.62 -0.231676
4.63 -0.237222
4.64 -0.240604
4.65 -0.241523
4.66 -0.239288
4.67 -0.234002
4.68 -0.225076
4.69 -0.212587
4.7 -0.196567
4.71 -0.176791
4.72 -0.153889
4.73 -0.127786
4.74 -0.0991413
4.75 -0.0683899
4.76 -0.0359893
4.77 -0.0026617
4.78 0.031075
4.79 0.0645713
4.8 0.0972973
4.81 0.128638
4.82 0.158327
4.83 0.185732
4.84 0.210824
4.85 0.233356
4.86 0.253164
4.87 0.270535
4.88 0.285226
4.89 0.297762
4.9 0.308262
4.91 0.317014
4.92 0.324455
4.93 0.330735
4.94 0.336313
4.95 0.341386
4.96 0.346182
4.97 0.350854
4.98 0.355463
4.99 0.36001
5 0.364407
5.01 0.368482
5.02 0.372053
5.03 0.374732
5.04 0.376331
5.05 0.376405
5.06 0.374638
5.07 0.370816
5.08 0.364358
5.09 0.355373
5.1 0.343403
5.11 0.328491
5.12 0.310697
5.13 0.289808
5.14 0.26635
5.15 0.240265
5.16 0.212055
5.17 0.182084
5.18 0.150682
5.19 0.118443
5.2 0.0857539
5.21 0.0531382
5.22 0.0210089
5.23 -0.010144
5.24 -0.0400954
5.25 -0.0683585
5.26 -0.0948677
5.27 -0.119434
5.28 -0.141883
5.29 -0.162427
5.3 -0.180854
5.31 -0.197531
5.32 -0.212535
5.33 -0.226045
5.34 -0.238397
5.35 -0.249663
5.36 -0.260199
5.37 -0.270139
5.38 -0.279649
5.39 -0.288865
5.4 -0.297813
5.41 -0.306541
5.42 -0.314988
5.43 -0.323055
5.44 -0.330651
5.45 -0.337506
5.46 -0.343534
5.47 -0.348456
5.48 -0.352075
5.49 -0.354289
5.5 -0.354726
5.51 -0.353503
5.52 -0.350367
5.53 -0.345373
5.54 -0.338622
5.55 -0.330029
5.56 -0.319981
5.57 -0.308536
5.58 -0.296058
5.59 -0.28285
5.6 -0.269232
5.61 -0.255592
5.62 -0.242314
5.63 -0.229749
5.64 -0.21821
5.65 -0.208127
5.66 -0.199587
5.67 -0.193031
5.68 -0.188455
5.69 -0.185991
5.7 -0.18581
5.71 -0.187661
5.72 -0.191757
5.73 -0.197739
5.74 -0.205519
5.75 -0.21494
5.76 -0.225635
5.77 -0.237515
5.78 -0.250173
5.79 -0.263398
5.8 -0.276912
5.81 -0.290458
5.82 -0.303762
5.83 -0.316629
5.84 -0.328819
5.85 -0.340111
5.86 -0.350412
5.87 -0.359357
5.88 -0.366977
5.89 -0.373
5.9 -0.377278
5.91 -0.379787
5.92 -0.3801
5.93 -0.378377
5.94 -0.374279
5.95 -0.367738
5.96 -0.358766
5.97 -0.346952
5.98 -0.332609
5.99 -0.315435
6 -0.295582
6.01 -0.273193
6.02 -0.24815
6.03 -0.220966
6.04 -0.191659
6.05 -0.160712
6.06 -0.128505
6.07 -0.0954453
6.08 -0.0621085
6.09 -0.0290383
6.1 0.00318752
6.11 0.0340236
6.12 0.0627296
6.13 0.0890329
6.14 0.11207
6.15 0.131713
6.16 0.147565
6.17 0.15918
6.18 0.166889
6.19 0.170142
6.2 0.169592
6.21 0.165358
6.22 0.157799
6.23 0.14773
6.24 0.135513
6.25 0.122186
6.26 0.108472
6.27 0.0953303
6.28 0.083503
6.29 0.0742093
6.3 0.0679121
6.31 0.0655675
6.32 0.0678546
6.33 0.0748813
6.34 0.0877837
6.35 0.105889
6.36 0.129664
6.37 0.158764
6.38 0.19253
6.39 0.230927
6.4 0.272596
6.41 0.316973
6.42 0.362861
6.43 0.409193
6.44 0.45468
6.45 0.498287
6.46 0.5386
6.47 0.574601
6.48 0.605441
6.49 0.629574
6.5 0.647085
6.51 0.656551
6.52 0.658107
6.53 0.651606
6.54 0.636415
6.55 0.613718
6.56 0.582961
6.57 0.545442
6.58 0.501761
6.59 0.452531
6.6 0.399247
6.61 0.342491
6.62 0.283738
6.63 0.223961
6.64 0.164315
6.65 0.105717
6.66 0.0493675
6.67 -0.00415317
6.68 -0.0540349
6.69 -0.0995592
6.7 -0.140741
6.71 -0.176576
6.72 -0.207637
6.73 -0.233603
6.74 -0.25458
6.75 -0.271194
6.76 -0.283089
6.77 -0.29135
6.78 -0.296085
6.79 -0.297838
6.8 -0.29723
6.81 -0.29444
6.82 -0.290189
6.83 -0.284708
6.84 -0.278381
6.85 -0.271489
6.86 -0.264186
6.87 -0.256658
6.88 -0.248954
6.89 -0.241106
6.9 -0.233099
6.91 -0.224857
6.92 -0.216339
6.93 -0.207432
6.94 -0.198079
6.95 -0.188233
6.96 -0.177815
6.97 -0.166892
6.98 -0.155443
6.99 -0.143592
7 -0.131449
7.01 -0.119171
7.02 -0.106947
7.03 -0.0950134
7.04 -0.0835749
7.05 -0.0728534
7.06 -0.0631292
7.07 -0.0544783
7.08 -0.0472327
7.09 -0.0413616
7.1 -0.03698
7.11 -0.0341478
7.12 -0.0326669
7.13 -0.0326106
7.14 -0.0336196
7.15 -0.0355265
7.16 -0.0380267
7.17 -0.0407719
7.18 -0.0433889
7.19 -0.0455188
7.2 -0.0467603
7.21 -0.046714
7.22 -0.045177
7.23 -0.0415678
7.24 -0.035946
7.25 -0.0279547
7.26 -0.0175217
7.27 -0.00477034
7.28 0.0105591
7.29 0.0279782
7.3 0.0474807
7.31 0.0686835
7.32 0.0911928
7.33 0.114697
7.34 0.138635
7.35 0.162568
7.36 0.185973
7.37 0.20842
7.38 0.229273
7.39 0.24831
7.4 0.264899
7.41 0.278841
7.42 0.289901
7.43 0.297598
7.44 0.302192
7.45 0.303213
7.46 0.300967
7.47 0.2955
7.48 0.28677
7.49 0.275322
7.5 0.26106
7.51 0.244571
7.52 0.226105
7.53 0.20597
7.54 0.18467
7.55 0.162447
7.56 0.139779
7.57 0.116981
7.58 0.094422
7.59 0.0723595
7.6 0.0511918
7.61 0.0310557
7.62 0.0122257
7.63 -0.00508274
7.64 -0.0208656
7.65 -0.0347349
7.66 -0.046883
7.67 -0.0571148
7.68 -0.0654193
7.69 -0.0719366
7.7 -0.0764342
7.71 -0.0792558
7.72 -0.080326
7.73 -0.0798063
7.74 -0.0779029
7.75 -0.0746161
7.76 -0.0703077
7.77 -0.0650762
7.78 -0.0591991
7.79 -0.0529194
7.8 -0.0464854
7.81 -0.0401728
7.82 -0.0342765
7.83 -0.0290631
7.84 -0.0247642
7.85 -0.0217539
7.86 -0.0200975
7.87 -0.0201756
7.88 -0.0220355
7.89 -0.0257877
7.9 -0.0316545
7.91 -0.0394115
7.92 -0.0492602
7.93 -0.0609007
7.94 -0.0742017
7.95 -0.0889939
7.96 -0.104851
7.97 -0.121548
7.98 -0.138599
7.99 -0.155619
8 -0.172116
8.01 -0.18773
8.02 -0.201833
8.03 -0.214178
8.04 -0.224304
8.05 -0.231791
8.06 -0.23663
8.07 -0.238162
8.08 -0.236715
8.09 -0.232041
8.1 -0.22419
8.11 -0.213548
8.12 -0.199925
8.13 -0.184066
8.14 -0.16614
8.15 -0.146654
8.16 -0.126139
8.17 -0.105032
8.18 -0.0839169
8.19 -0.0632945
8.2 -0.0436611
8.21 -0.0253586
8.22 -0.00897399
8.23 0.00546402
8.24 0.0175369
8.25 0.0272386
8.26 0.0346265
8.27 0.0395551
8.28 0.0425017
8.29 0.0435111
8.3 0.0430709
8.31 0.0415738
8.32 0.0394452
8.33 0.0372141
8.34 0.0353902
8.35 0.0344456
8.36 0.0348052
8.37 0.037012
8.38 0.0411777
8.39 0.0478485
8.4 0.0569566
8.41 0.0686222
8.42 0.0829296
8.43 0.09948
8.44 0.118333
8.45 0.138892
8.46 0.160832
8.47 0.18366
8.48 0.206804
8.49 0.229674
8.5 0.251716
8.51 0.272329
8.52 0.290891
8.53 0.307129
8.54 0.320156
8.55 0.330065
8.56 0.336347
8.57 0.338826
8.58 0.337718
8.59 0.332509
8.6 0.323919
8.61 0.311867
8.62 0.296774
8.63 0.279172
8.64 0.259249
8.65 0.237812
8.66 0.215238
8.67 0.192149
8.68 0.16905
8.69 0.146517
8.7 0.124922
8.71 0.104787
8.72 0.0863918
8.73 0.0699367
8.74 0.0558136
8.75 0.0438261
8.76 0.0342392
8.77 0.0268021
8.78 0.021361
8.79 0.0178183
8.8 0.0156927
8.81 0.014817
8.82 0.0147061
8.83 0.0150146
8.84 0.0153338
8.85 0.0153151
8.86 0.0145265
8.87 0.0127206
8.88 0.0096127
8.89 0.00490975
8.9 -0.00136768
8.91 -0.00954644
8.92 -0.0194146
8.93 -0.030998
8.94 -0.0441937
8.95 -0.0586784
8.96 -0.0743657
8.97 -0.0907861
8.98 -0.107652
8.99 -0.124544
9 -0.141097
9.01 -0.15677
9.02 -0.17128
9.03 -0.184133
9.04 -0.194936
9.05 -0.203519
9.06 -0.209209
9.07 -0.212173
9.08 -0.211966
9.09 -0.208551
9.1 -0.202048
9.11 -0.192095
9.12 -0.179249
9.13 -0.16338
9.14 -0.14488
9.15 -0.124117
9.16 -0.101259
9.17 -0.0769653
9.18 -0.0515359
9.19 -0.0255484
9.2 0.00053139
9.21 0.0261402
9.22 0.0508659
9.23 0.0740945
9.24 0.0954727
9.25 0.114621
9.26 0.13098
9.27 0.144585
9.28 0.154816
9.29 0.16182
9.3 0.165448
9.31 0.165506
9.32 0.162415
9.33 0.155857
9.34 0.146394
9.35 0.134137
9.36 0.119302
9.37 0.102421
9.38 0.0835577
9.39 0.0633065
9.4 0.0419161
9.41 0.0197339
9.42 -0.00289266
9.43 -0.0257159
9.44 -0.0484693
9.45 -0.0709588
9.46 -0.0930196
9.47 -0.114591
9.48 -0.135524
9.49 -0.155892
9.5 -0.175655
9.51 -0.194866
9.52 -0.213607
9.53 -0.231878
9.54 -0.249796
9.55 -0.267358
9.56 -0.284587
9.57 -0.301469
9.58 -0.31788
9.59 -0.333765
9.6 -0.348886
9.61 -0.363044
9.62 -0.376013
9.63 -0.387315
9.64 -0.396823
9.65 -0.403935
9.66 -0.408413
9.67 -0.409934
9.68 -0.40786
9.69 -0.402316
9.7 -0.392583
9.71 -0.378816
9.72 -0.360886
9.73 -0.338521
9.74 -0.312291
9.75 -0.281885
9.76 -0.248036
9.77 -0.211042
9.78 -0.171334
9.79 -0.129732
9.8 -0.0867009
9.81 -0.0431422
9.82 0.000251217
9.83 0.0426227
9.84 0.0833835
9.85 0.121462
9.86 0.156534
9.87 0.187839
9.88 0.214795
9.89 0.237425
9.9 0.254698
9.91 0.267246
9.92 0.27466
9.93 0.277098
9.94 0.275115
9.95 0.268432
9.96 0.258138
9.97 0.24439
9.98 0.227881
9.99 0.209301
10 0.189079
10.01 0.168022
10.02 0.14662
10.03 0.125453
10.04 0.104935
10.05 0.0855857
10.06 0.067549
10.07 0.0511984
10.08 0.0365738
10.09 0.0236825
10.1 0.0126475
10.11 0.00314883
10.12 -0.00479032
10.13 -0.0114928
10.14 -0.0171666
10.15 -0.021997
10.16 -0.0262885
10.17 -0.0301874
10.18 -0.0339038
10.19 -0.0375514
10.2 -0.0412102
10.21 -0.0448984
10.22 -0.0485835
10.23 -0.052179
10.24 -0.0555601
10.25 -0.0585364
10.26 -0.0609769
10.27 -0.062579
10.28 -0.0632454
10.29 -0.0627569
10.3 -0.0609265
10.31 -0.0577791
10.32 -0.0530409
10.33 -0.0469321
10.34 -0.0394185
10.35 -0.0306384
10.36 -0.0208618
10.37 -0.0102084
10.38 0.000908749
10.39 0.0122188
10.4 0.0233513
10.41 0.0340118
10.42 0.0437556
10.43 0.0524209
10.44 0.0596525
10.45 0.0652894
10.46 0.0692963
10.47 0.071422
10.48 0.0719532
10.49 0.0708433
10.5 0.0683874
10.51 0.0648764
10.52 0.0605846
10.53 0.0559755
10.54 0.0514419
10.55 0.0474296
10.56 0.0443169
10.57 0.0426234
10.58 0.0425054
10.59 0.0444567
10.6 0.048518
10.61 0.054799
10.62 0.0634547
10.63 0.0741329
10.64 0.0868898
10.65 0.101215
10.66 0.116778
10.67 0.133118
10.68 0.149674
10.69 0.16585
10.7 0.181092
10.71 0.19481
10.72 0.206341
10.73 0.215432
10.74 0.221209
10.75 0.223733
10.76 0.222561
10.77 0.217481
10.78 0.2088
10.79 0.19602
10.8 0.179911
10.81 0.160495
10.82 0.138211
10.83 0.113686
10.84 0.0871824
10.85 0.0595416
10.86 0.031236
10.87 0.00291749
10.88 -0.0249002
10.89 -0.0515355
10.9 -0.0766837
10.91 -0.0997783
10.92 -0.120535
10.93 -0.138813
10.94 -0.154127
10.95 -0.166771
10.96 -0.176431
10.97 -0.183328
10.98 -0.187628
10.99 -0.189261
11 -0.188735
11.01 -0.186012
11.02 -0.181477
11.03 -0.175339
11.04 -0.167698
11.05 -0.158889
11.06 -0.148918
11.07 -0.138002
11.08 -0.126206
11.09 -0.113536
11.1 -0.100111
11.11 -0.0858383
11.12 -0.070807
11.13 -0.0549977
11.14 -0.0383963
11.15 -0.0211153
11.16 -0.00312882
11.17 0.0153731
11.18 0.0342759
11.19 0.0533763
11.2 0.0724439
11.21 0.0911581
11.22 0.109251
11.23 0.126356
11.24 0.142076
11.25 0.156212
11.26 0.168099
11.27 0.177753
11.28 0.184711
11.29 0.188763
11.3 0.189964
11.31 0.187806
11.32 0.182767
11.33 0.174661
11.34 0.163772
11.35 0.15048
11.36 0.134873
11.37 0.117657
11.38 0.0991337
11.39 0.0798973
11.4 0.0604481
11.41 0.0413626
11.42 0.0230791
11.43 0.00617625
11.44 -0.00898857
11.45 -0.0221224
11.46 -0.0327392
11.47 -0.0409702
11.48 -0.0464308
11.49 -0.0493498
11.5 -0.0498234
11.51 -0.047902
11.52 -0.0441094
11.53 -0.0385631
11.54 -0.0318324
11.55 -0.0242913
11.56 -0.016391
11.57 -0.00857024
11.58 -0.00129685
11.59 0.00510328
11.6 0.0102921
11.61 0.013941
11.62 0.0160304
11.63 0.0162044
11.64 0.0146767
11.65 0.0114049
11.66 0.00650468
11.67 0.0002961
11.68 -0.00714377
11.69 -0.0153498
11.7 -0.02407
11.71 -0.0329381
11.72 -0.0416471
11.73 -0.0498079
11.74 -0.0572208
11.75 -0.0635825
11.76 -0.0687061
11.77 -0.0725463
11.78 -0.0748401
11.79 -0.0757884
11.8 -0.0753013
11.81 -0.073533
11.82 -0.0706669
11.83 -0.066773
11.84 -0.0621769
11.85 -0.0570164
11.86 -0.0515443
11.87 -0.0459507
11.88 -0.0404258
11.89 -0.0351004
11.9 -0.0301126
11.91 -0.0255113
11.92 -0.0213165
11.93 -0.0175418
11.94 -0.0140855
11.95 -0.0108922
11.96 -0.00781794
11.97 -0.00473861
11.98 -0.00149391
11.99 0.00202744
12 0.006001
12.01 0.0104887
12.02 0.0155723
12.03 0.0213167
12.04 0.0276472
12.05 0.0345891
12.06 0.0419683
12.07 0.0496662
12.08 0.0574853
12.09 0.0652165
12.1 0.0725693
12.11 0.0793305
12.12 0.0852089
12.13 0.0899122
12.14 0.093326
12.15 0.0949912
12.16 0.094987
12.17 0.0930491
12.18 0.0891078
12.19 0.0832839
12.2 0.0753329
12.21 0.0656455
12.22 0.0541997
12.23 0.0412464
12.24 0.0270764
12.25 0.0118354
12.26 -0.00405307
12.27 -0.0203537
12.28 -0.0367256
12.29 -0.0528983
12.3 -0.0685325
12.31 -0.0834566
12.32 -0.097365
12.33 -0.110124
12.34 -0.121628
12.35 -0.131647
12.36 -0.140305
12.37 -0.147413
12.38 -0.153103
12.39 -0.157416
12.4 -0.160323
12.41 -0.16206
12.42 -0.162566
12.43 -0.162046
12.44 -0.160561
12.45 -0.158142
12.46 -0.154943
12.47 -0.150898
12.48 -0.146122
12.49 -0.140594
12.5 -0.134273
12.51 -0.127215
12.52 -0.119272
12.53 -0.110515
12.54 -0.100866
12.55 -0.0902798
12.56 -0.0788313
12.57 -0.0663924
12.58 -0.0531311
12.59 -0.0390477
12.6 -0.024241
12.61 -0.00887827
12.62 0.0069539
12.63 0.0230082
12.64 0.0391056
12.65 0.0550044
12.66 0.0705082
12.67 0.0852868
12.68 0.0992135
12.69 0.111985
12.7 0.123423
12.71 0.133434
12.72 0.141684
12.73 0.148312
12.74 0.153089
12.75 0.156097
12.76 0.157427
12.77 0.157002
12.78 0.155166
12.79 0.151928
12.8 0.147592
12.81 0.14238
12.82 0.136497
12.83 0.130261
12.84 0.123896
12.85 0.117669
12.86 0.111792
12.87 0.10652
12.88 0.101945
12.89 0.0983078
12.9 0.0956166
