# xPDFsuite Configuration #
[PDF]
wavelength = 0.1
dataformat = QA
inputfile = B3_Bronze-3nm_ss_035.chi
backgroundfile = B3_Li-bkg_DD155_two_ss_att.chi
mode = xray
bgscale = 0.985
composition = Ti O2
outputtype = gr
qmaxinst = 23.5
qmin = 0.1
qmax = 23.0
rmax = 40.0
rmin = 0.0
rstep = 0.01
rpoly = 0.9

[Misc]
inputdir = E:/Beamtime/PETRA-III_September-2019/BeamData/processed/Run1/B3/integration_20210218/chi/chi_w_sigmas/chi_scaled
savedir = E:/Beamtime/PETRA-III_September-2019/BeamData/processed/Run1/B3/integration_20210218
backgroundfilefull = E:/Beamtime/PETRA-III_September-2019/BeamData/processed/Run1/B3/integration_20210218/chi/chi_w_sigmas/chi_scaled/B3_Li-bkg_DD155_two_ss_att.chi

#### start data
#S 1
#L r($\AA$)  G($\AA^{-2}$)
0 0
0.01 0.00186847
0.02 0.00363557
0.03 0.00519887
0.04 0.0064671
0.05 0.00739703
0.06 0.00788001
0.07 0.00795115
0.08 0.00756654
0.09 0.0067602
0.1 0.00559202
0.11 0.00408886
0.12 0.00237382
0.13 0.000519491
0.14 -0.0013592
0.15 -0.00316674
0.16 -0.00478017
0.17 -0.0061361
0.18 -0.00712388
0.19 -0.00770176
0.2 -0.0078399
0.21 -0.00748016
0.22 -0.00668898
0.23 -0.00544586
0.24 -0.00384207
0.25 -0.00194552
0.26 0.000162277
0.27 0.00236155
0.28 0.00454431
0.29 0.0065925
0.3 0.00839639
0.31 0.00982016
0.32 0.0108105
0.33 0.011207
0.34 0.0109969
0.35 0.0101013
0.36 0.00844866
0.37 0.00608842
0.38 0.00290209
0.39 -0.00100161
0.4 -0.00564218
0.41 -0.0109915
0.42 -0.0169412
0.43 -0.0235142
0.44 -0.0305448
0.45 -0.0379765
0.46 -0.0456874
0.47 -0.0535412
0.48 -0.061388
0.49 -0.0690597
0.5 -0.0763504
0.51 -0.0830298
0.52 -0.088918
0.53 -0.0935998
0.54 -0.0969636
0.55 -0.0985788
0.56 -0.0981755
0.57 -0.0955648
0.58 -0.0901437
0.59 -0.0820173
0.6 -0.0706493
0.61 -0.0560088
0.62 -0.0380737
0.63 -0.0164667
0.64 0.00831029
0.65 0.0364737
0.66 0.0675174
0.67 0.101067
0.68 0.136771
0.69 0.173813
0.7 0.211619
0.71 0.249303
0.72 0.286069
0.73 0.320847
0.74 0.353008
0.75 0.381215
0.76 0.404979
0.77 0.423457
0.78 0.435669
0.79 0.441773
0.8 0.440479
0.81 0.432464
0.82 0.41746
0.83 0.395551
0.84 0.367794
0.85 0.334017
0.86 0.295849
0.87 0.253963
0.88 0.209556
0.89 0.163916
0.9 0.118275
0.91 0.0738597
0.92 0.031902
0.93 -0.00645879
0.94 -0.0406657
0.95 -0.0692713
0.96 -0.0926053
0.97 -0.109958
0.98 -0.121539
0.99 -0.127958
1 -0.129228
1.01 -0.126869
1.02 -0.121581
1.03 -0.114809
1.04 -0.107844
1.05 -0.102287
1.06 -0.0993104
1.07 -0.100583
1.08 -0.107129
1.09 -0.119756
1.1 -0.139861
1.11 -0.166938
1.12 -0.201916
1.13 -0.243894
1.14 -0.292228
1.15 -0.346198
1.16 -0.403858
1.17 -0.46386
1.18 -0.523952
1.19 -0.582127
1.2 -0.635745
1.21 -0.683187
1.22 -0.721162
1.23 -0.748561
1.24 -0.763332
1.25 -0.763364
1.26 -0.749131
1.27 -0.717814
1.28 -0.671374
1.29 -0.609429
1.3 -0.532734
1.31 -0.443944
1.32 -0.343365
1.33 -0.234988
1.34 -0.120889
1.35 -0.00434543
1.36 0.111624
1.37 0.223183
1.38 0.32783
1.39 0.422023
1.4 0.50293
1.41 0.569266
1.42 0.616717
1.43 0.646535
1.44 0.65616
1.45 0.645964
1.46 0.617212
1.47 0.56871
1.48 0.504527
1.49 0.425023
1.5 0.333536
1.51 0.232957
1.52 0.125782
1.53 0.0158319
1.54 -0.093935
1.55 -0.20028
1.56 -0.300595
1.57 -0.391414
1.58 -0.471757
1.59 -0.5384
1.6 -0.591068
1.61 -0.628944
1.62 -0.650713
1.63 -0.658348
1.64 -0.650675
1.65 -0.630312
1.66 -0.598342
1.67 -0.556165
1.68 -0.506619
1.69 -0.45092
1.7 -0.391884
1.71 -0.331287
1.72 -0.271169
1.73 -0.212999
1.74 -0.158654
1.75 -0.108745
1.76 -0.0642459
1.77 -0.0256662
1.78 0.00745864
1.79 0.0345408
1.8 0.0569863
1.81 0.0751881
1.82 0.0902157
1.83 0.103264
1.84 0.115321
1.85 0.127607
1.86 0.141126
1.87 0.156777
1.88 0.17503
1.89 0.196716
1.9 0.221506
1.91 0.249577
1.92 0.280353
1.93 0.313101
1.94 0.346979
1.95 0.380747
1.96 0.413061
1.97 0.442507
1.98 0.467828
1.99 0.486994
2 0.499474
2.01 0.503192
2.02 0.497688
2.03 0.482288
2.04 0.455636
2.05 0.418822
2.06 0.370629
2.07 0.312474
2.08 0.24491
2.09 0.168519
2.1 0.0854249
2.11 -0.00366974
2.12 -0.0964211
2.13 -0.191236
2.14 -0.286086
2.15 -0.379213
2.16 -0.468246
2.17 -0.551809
2.18 -0.62801
2.19 -0.694958
2.2 -0.752274
2.21 -0.797136
2.22 -0.830284
2.23 -0.850298
2.24 -0.85666
2.25 -0.85039
2.26 -0.829506
2.27 -0.796515
2.28 -0.75093
2.29 -0.693757
2.3 -0.626663
2.31 -0.54953
2.32 -0.465052
2.33 -0.373946
2.34 -0.278063
2.35 -0.17911
2.36 -0.0786281
2.37 0.0215197
2.38 0.119558
2.39 0.213758
2.4 0.30274
2.41 0.384121
2.42 0.457441
2.43 0.520367
2.44 0.572259
2.45 0.612362
2.46 0.638711
2.47 0.652411
2.48 0.651566
2.49 0.637269
2.5 0.609746
2.51 0.5687
2.52 0.516441
2.53 0.452709
2.54 0.380041
2.55 0.29982
2.56 0.213757
2.57 0.12434
2.58 0.0334704
2.59 -0.0564135
2.6 -0.143172
2.61 -0.224288
2.62 -0.298453
2.63 -0.362525
2.64 -0.416126
2.65 -0.457421
2.66 -0.48514
2.67 -0.499957
2.68 -0.499563
2.69 -0.486284
2.7 -0.459743
2.71 -0.421043
2.72 -0.372326
2.73 -0.313909
2.74 -0.249073
2.75 -0.17927
2.76 -0.106965
2.77 -0.034307
2.78 0.0362408
2.79 0.102968
2.8 0.163638
2.81 0.216738
2.82 0.261431
2.83 0.295637
2.84 0.320194
2.85 0.333885
2.86 0.337513
2.87 0.331898
2.88 0.317184
2.89 0.29567
2.9 0.268081
2.91 0.236551
2.92 0.202715
2.93 0.168371
2.94 0.135171
2.95 0.104929
2.96 0.0788339
2.97 0.0579662
2.98 0.043594
2.99 0.0354811
3 0.034667
3.01 0.0402418
3.02 0.0518966
3.03 0.0689978
3.04 0.0900134
3.05 0.114095
3.06 0.139431
3.07 0.164641
3.08 0.188023
3.09 0.208416
3.1 0.223814
3.11 0.233681
3.12 0.236754
3.13 0.23222
3.14 0.22038
3.15 0.199931
3.16 0.172343
3.17 0.137525
3.18 0.0963844
3.19 0.0502656
3.2 -0.000218114
3.21 -0.0531688
3.22 -0.107476
3.23 -0.161635
3.24 -0.214477
3.25 -0.264462
3.26 -0.310984
3.27 -0.352858
3.28 -0.389646
3.29 -0.421227
3.3 -0.446916
3.31 -0.467617
3.32 -0.483157
3.33 -0.49444
3.34 -0.502211
3.35 -0.507083
3.36 -0.510231
3.37 -0.512357
3.38 -0.514386
3.39 -0.516965
3.4 -0.52075
3.41 -0.525934
3.42 -0.532845
3.43 -0.541222
3.44 -0.550771
3.45 -0.560922
3.46 -0.570898
3.47 -0.579632
3.48 -0.586142
3.49 -0.589249
3.5 -0.587492
3.51 -0.580282
3.52 -0.56559
3.53 -0.543365
3.54 -0.512503
3.55 -0.472272
3.56 -0.423306
3.57 -0.364278
3.58 -0.296929
3.59 -0.221316
3.6 -0.138486
3.61 -0.0501264
3.62 0.0429525
3.63 0.138412
3.64 0.23471
3.65 0.329791
3.66 0.422034
3.67 0.508893
3.68 0.589408
3.69 0.661375
3.7 0.723568
3.71 0.775412
3.72 0.814631
3.73 0.842334
3.74 0.857002
3.75 0.859281
3.76 0.849822
3.77 0.828046
3.78 0.796251
3.79 0.754291
3.8 0.704025
3.81 0.646707
3.82 0.583225
3.83 0.515555
3.84 0.444559
3.85 0.371815
3.86 0.298399
3.87 0.225465
3.88 0.153833
3.89 0.0845524
3.9 0.0180982
3.91 -0.0449501
3.92 -0.103939
3.93 -0.158978
3.94 -0.209212
3.95 -0.254979
3.96 -0.295949
3.97 -0.331832
3.98 -0.363001
3.99 -0.388587
4 -0.409155
4.01 -0.424251
4.02 -0.433619
4.03 -0.437602
4.04 -0.435123
4.05 -0.426946
4.06 -0.412512
4.07 -0.391786
4.08 -0.365253
4.09 -0.332149
4.1 -0.293637
4.11 -0.249559
4.12 -0.200554
4.13 -0.147451
4.14 -0.0905458
4.15 -0.0311891
4.16 0.02991
4.17 0.091573
4.18 0.152789
4.19 0.212232
4.2 0.269072
4.21 0.321934
4.22 0.36999
4.23 0.412552
4.24 0.448251
4.25 0.477376
4.26 0.49872
4.27 0.512618
4.28 0.519102
4.29 0.517802
4.3 0.509952
4.31 0.495271
4.32 0.475055
4.33 0.449972
4.34 0.420719
4.35 0.388598
4.36 0.354236
4.37 0.318807
4.38 0.283094
4.39 0.24796
4.4 0.213967
4.41 0.181901
4.42 0.151956
4.43 0.12449
4.44 0.099702
4.45 0.0773389
4.46 0.0576349
4.47 0.0400005
4.48 0.0242727
4.49 0.0100565
4.5 -0.0031291
4.51 -0.0155735
4.52 -0.0277529
4.53 -0.0399524
4.54 -0.0524413
4.55 -0.0653444
4.56 -0.0787945
4.57 -0.0926724
4.58 -0.106874
4.59 -0.121129
4.6 -0.13514
4.61 -0.14842
4.62 -0.160636
4.63 -0.171197
4.64 -0.179669
4.65 -0.185709
4.66 -0.188584
4.67 -0.188366
4.68 -0.184429
4.69 -0.176827
4.7 -0.165564
4.71 -0.150376
4.72 -0.131882
4.73 -0.109952
4.74 -0.0852283
4.75 -0.0581118
4.76 -0.028996
4.77 0.00139485
4.78 0.0326321
4.79 0.0640654
4.8 0.0952062
4.81 0.125498
4.82 0.154643
4.83 0.182094
4.84 0.207767
4.85 0.23143
4.86 0.252918
4.87 0.27244
4.88 0.28978
4.89 0.305348
4.9 0.319224
4.91 0.331626
4.92 0.342897
4.93 0.353122
4.94 0.362661
4.95 0.371632
4.96 0.380178
4.97 0.388397
4.98 0.396245
4.99 0.403717
5 0.410652
5.01 0.416859
5.02 0.422166
5.03 0.42613
5.04 0.428637
5.05 0.429228
5.06 0.427639
5.07 0.423706
5.08 0.416866
5.09 0.40731
5.1 0.394609
5.11 0.378858
5.12 0.360155
5.13 0.338311
5.14 0.313876
5.15 0.286794
5.16 0.257564
5.17 0.226531
5.18 0.193991
5.19 0.160507
5.2 0.126404
5.21 0.0921619
5.22 0.0581418
5.23 0.0247547
5.24 -0.00778369
5.25 -0.039082
5.26 -0.0690635
5.27 -0.0975689
5.28 -0.12445
5.29 -0.149855
5.3 -0.173603
5.31 -0.195954
5.32 -0.216943
5.33 -0.236661
5.34 -0.255341
5.35 -0.272954
5.36 -0.289741
5.37 -0.30572
5.38 -0.320933
5.39 -0.335453
5.4 -0.34913
5.41 -0.362017
5.42 -0.373946
5.43 -0.384782
5.44 -0.394467
5.45 -0.402637
5.46 -0.409346
5.47 -0.414305
5.48 -0.417415
5.49 -0.418684
5.5 -0.417802
5.51 -0.415044
5.52 -0.410254
5.53 -0.403614
5.54 -0.395325
5.55 -0.385423
5.56 -0.374344
5.57 -0.362238
5.58 -0.349487
5.59 -0.336396
5.6 -0.323302
5.61 -0.310506
5.62 -0.298359
5.63 -0.287096
5.64 -0.276931
5.65 -0.268158
5.66 -0.260749
5.67 -0.254977
5.68 -0.25073
5.69 -0.248019
5.7 -0.246862
5.71 -0.247005
5.72 -0.248488
5.73 -0.251017
5.74 -0.25447
5.75 -0.258694
5.76 -0.263465
5.77 -0.268691
5.78 -0.27418
5.79 -0.279833
5.8 -0.285548
5.81 -0.291251
5.82 -0.296876
5.83 -0.30239
5.84 -0.30775
5.85 -0.312916
5.86 -0.317866
5.87 -0.322495
5.88 -0.32677
5.89 -0.330553
5.9 -0.333698
5.91 -0.336089
5.92 -0.337377
5.93 -0.337484
5.94 -0.33603
5.95 -0.332767
5.96 -0.327526
5.97 -0.31975
5.98 -0.309535
5.99 -0.296406
6 -0.280336
6.01 -0.261336
6.02 -0.239094
6.03 -0.214095
6.04 -0.186209
6.05 -0.155921
6.06 -0.123617
6.07 -0.0896681
6.08 -0.0547982
6.09 -0.019563
6.1 0.0152909
6.11 0.0490978
6.12 0.0809759
6.13 0.110488
6.14 0.136611
6.15 0.159074
6.16 0.17735
6.17 0.190843
6.18 0.199851
6.19 0.203667
6.2 0.202985
6.21 0.197885
6.22 0.188726
6.23 0.176435
6.24 0.161358
6.25 0.14471
6.26 0.127295
6.27 0.110199
6.28 0.0943041
6.29 0.0809604
6.3 0.0707533
6.31 0.0647613
6.32 0.0637727
6.33 0.067942
6.34 0.0785421
6.35 0.094859
6.36 0.117423
6.37 0.14587
6.38 0.179483
6.39 0.218242
6.4 0.260659
6.41 0.306134
6.42 0.353372
6.43 0.40122
6.44 0.448317
6.45 0.493542
6.46 0.535415
6.47 0.572867
6.48 0.605016
6.49 0.630275
6.5 0.648749
6.51 0.659004
6.52 0.661215
6.53 0.655267
6.54 0.640574
6.55 0.618372
6.56 0.588167
6.57 0.551302
6.58 0.508424
6.59 0.460195
6.6 0.408113
6.61 0.352797
6.62 0.295695
6.63 0.237764
6.64 0.180127
6.65 0.123638
6.66 0.0694416
6.67 0.0180379
6.68 -0.02984
6.69 -0.0735662
6.7 -0.113208
6.71 -0.147884
6.72 -0.17818
6.73 -0.203847
6.74 -0.225028
6.75 -0.242318
6.76 -0.255429
6.77 -0.265336
6.78 -0.272136
6.79 -0.276292
6.8 -0.278325
6.81 -0.278335
6.82 -0.276913
6.83 -0.274184
6.84 -0.270414
6.85 -0.265796
6.86 -0.260339
6.87 -0.254207
6.88 -0.247341
6.89 -0.239754
6.9 -0.231435
6.91 -0.222257
6.92 -0.21229
6.93 -0.201422
6.94 -0.189714
6.95 -0.177216
6.96 -0.163951
6.97 -0.150129
6.98 -0.135859
6.99 -0.121394
7 -0.106963
7.01 -0.0928723
7.02 -0.0793528
7.03 -0.066795
7.04 -0.0554025
7.05 -0.0454422
7.06 -0.0372415
7.07 -0.0307815
7.08 -0.0264446
7.09 -0.0240566
7.1 -0.0236756
7.11 -0.0252688
7.12 -0.0284966
7.13 -0.0333434
7.14 -0.0393046
7.15 -0.0461042
7.16 -0.0533153
7.17 -0.0605172
7.18 -0.0671991
7.19 -0.0729899
7.2 -0.0774119
7.21 -0.0800351
7.22 -0.0806885
7.23 -0.0787257
7.24 -0.0743111
7.25 -0.0670876
7.26 -0.0570466
7.27 -0.0443866
7.28 -0.0288777
7.29 -0.0111059
7.3 0.00888194
7.31 0.0306433
7.32 0.0537431
7.33 0.0778394
7.34 0.102353
7.35 0.126838
7.36 0.150784
7.37 0.173777
7.38 0.195216
7.39 0.214907
7.4 0.232271
7.41 0.247143
7.42 0.259323
7.43 0.268386
7.44 0.274587
7.45 0.277503
7.46 0.27742
7.47 0.274374
7.48 0.268312
7.49 0.259716
7.5 0.248456
7.51 0.23504
7.52 0.219651
7.53 0.202509
7.54 0.184054
7.55 0.164418
7.56 0.144034
7.57 0.123142
7.58 0.102039
7.59 0.0809937
7.6 0.0603093
7.61 0.0401898
7.62 0.0208956
7.63 0.00267645
7.64 -0.0143782
7.65 -0.0298603
7.66 -0.0438309
7.67 -0.0560228
7.68 -0.0663159
7.69 -0.0747578
7.7 -0.080991
7.71 -0.085294
7.72 -0.0874842
7.73 -0.087655
7.74 -0.0859857
7.75 -0.0823733
7.76 -0.0772374
7.77 -0.0706261
7.78 -0.0628621
7.79 -0.0542432
7.8 -0.0450312
7.81 -0.0356249
7.82 -0.0263671
7.83 -0.0176338
7.84 -0.00974499
7.85 -0.00317454
7.86 0.00193055
7.87 0.00508783
7.88 0.0061867
7.89 0.00505805
7.9 0.00139688
7.91 -0.00456065
7.92 -0.0130955
7.93 -0.0238755
7.94 -0.0367756
7.95 -0.0516394
7.96 -0.0679731
7.97 -0.0855806
7.98 -0.103901
7.99 -0.122534
8 -0.140969
8.01 -0.158793
8.02 -0.175397
8.03 -0.190487
8.04 -0.203608
8.05 -0.214347
8.06 -0.222677
8.07 -0.227992
8.08 -0.230593
8.09 -0.230267
8.1 -0.22708
8.11 -0.221399
8.12 -0.213087
8.13 -0.202829
8.14 -0.190804
8.15 -0.177479
8.16 -0.163328
8.17 -0.148747
8.18 -0.134228
8.19 -0.12019
8.2 -0.107025
8.21 -0.0949863
8.22 -0.0845071
8.23 -0.0755549
8.24 -0.0683912
8.25 -0.0629386
8.26 -0.0590737
8.27 -0.0567755
8.28 -0.0556182
8.29 -0.0554149
8.3 -0.0557198
8.31 -0.0561553
8.32 -0.0562478
8.33 -0.0556305
8.34 -0.0537681
8.35 -0.0503521
8.36 -0.0450551
8.37 -0.0374322
8.38 -0.0275448
8.39 -0.0149495
8.4 0.000130196
8.41 0.0176975
8.42 0.0377041
8.43 0.0596794
8.44 0.0835525
8.45 0.108707
8.46 0.134767
8.47 0.161204
8.48 0.187505
8.49 0.213043
8.5 0.237378
8.51 0.259954
8.52 0.280235
8.53 0.298054
8.54 0.312616
8.55 0.32412
8.56 0.332156
8.57 0.336644
8.58 0.337851
8.59 0.33538
8.6 0.329935
8.61 0.321493
8.62 0.310469
8.63 0.297349
8.64 0.282334
8.65 0.266114
8.66 0.249022
8.67 0.231577
8.68 0.214184
8.69 0.19731
8.7 0.181232
8.71 0.166347
8.72 0.15285
8.73 0.140868
8.74 0.130668
8.75 0.122068
8.76 0.115223
8.77 0.109907
8.78 0.105966
8.79 0.103271
8.8 0.101444
8.81 0.100297
8.82 0.099455
8.83 0.0986283
8.84 0.0974661
8.85 0.0957258
8.86 0.0930217
8.87 0.0891967
8.88 0.0840196
8.89 0.0772517
8.9 0.068948
8.91 0.0588151
8.92 0.047067
8.93 0.0336779
8.94 0.0187338
8.95 0.0025269
8.96 -0.0148963
8.97 -0.033111
8.98 -0.0518824
8.99 -0.0708487
9 -0.0896768
9.01 -0.107912
9.02 -0.125267
9.03 -0.1413
9.04 -0.155632
9.05 -0.168071
9.06 -0.177978
9.07 -0.185441
9.08 -0.190002
9.09 -0.191554
9.1 -0.190145
9.11 -0.185339
9.12 -0.177602
9.13 -0.16671
9.14 -0.152963
9.15 -0.136654
9.16 -0.117825
9.17 -0.0971158
9.18 -0.0747114
9.19 -0.0511712
9.2 -0.0269397
9.21 -0.00250882
9.22 0.0216276
9.23 0.0449078
9.24 0.0668898
9.25 0.0871457
9.26 0.105076
9.27 0.120591
9.28 0.133023
9.29 0.142394
9.3 0.148475
9.31 0.150971
9.32 0.150226
9.33 0.145825
9.34 0.138283
9.35 0.127657
9.36 0.114115
9.37 0.0982078
9.38 0.0799544
9.39 0.0600168
9.4 0.0386655
9.41 0.0163058
9.42 -0.00663262
9.43 -0.0298303
9.44 -0.0529225
9.45 -0.0756229
9.46 -0.097665
9.47 -0.118927
9.48 -0.139122
9.49 -0.158317
9.5 -0.176387
9.51 -0.193359
9.52 -0.209339
9.53 -0.224273
9.54 -0.238395
9.55 -0.251723
9.56 -0.264387
9.57 -0.276489
9.58 -0.288027
9.59 -0.299095
9.6 -0.309623
9.61 -0.31957
9.62 -0.328851
9.63 -0.337217
9.64 -0.344588
9.65 -0.350595
9.66 -0.355042
9.67 -0.357677
9.68 -0.358012
9.69 -0.356041
9.7 -0.351181
9.71 -0.343424
9.72 -0.33257
9.73 -0.318283
9.74 -0.300884
9.75 -0.279971
9.76 -0.256009
9.77 -0.229101
9.78 -0.199437
9.79 -0.167634
9.8 -0.13387
9.81 -0.0988938
9.82 -0.0631828
9.83 -0.0273828
9.84 0.00793888
9.85 0.0420049
9.86 0.0743709
9.87 0.104385
9.88 0.13146
9.89 0.155448
9.9 0.175415
9.91 0.191671
9.92 0.203738
9.93 0.211566
9.94 0.21548
9.95 0.215033
9.96 0.211056
9.97 0.20351
9.98 0.19288
9.99 0.17971
10 0.164198
10.01 0.147126
10.02 0.128823
10.03 0.10985
10.04 0.0906444
10.05 0.0716557
10.06 0.0532076
10.07 0.0356817
10.08 0.0192907
10.09 0.0041849
10.1 -0.00937258
10.11 -0.0215044
10.12 -0.0320205
10.13 -0.0410722
10.14 -0.0487241
10.15 -0.0549772
10.16 -0.0600907
10.17 -0.0640366
10.18 -0.0670341
10.19 -0.0691599
10.2 -0.0704559
10.21 -0.0710632
10.22 -0.0709214
10.23 -0.0701174
10.24 -0.0686147
10.25 -0.0663503
10.26 -0.0633565
10.27 -0.0594652
10.28 -0.0547331
10.29 -0.0490767
10.3 -0.0424519
10.31 -0.0349471
10.32 -0.0264585
10.33 -0.0171875
10.34 -0.00717949
10.35 0.00341079
10.36 0.0143778
10.37 0.0255398
10.38 0.036636
10.39 0.0474161
10.4 0.0576054
10.41 0.0670152
10.42 0.075262
10.43 0.0823043
10.44 0.0878561
10.45 0.091835
10.46 0.0942572
10.47 0.0949291
10.48 0.0941441
10.49 0.0918781
10.5 0.0884091
10.51 0.0840019
10.52 0.0789018
10.53 0.073518
10.54 0.0681942
10.55 0.0633217
10.56 0.0592334
10.57 0.0563896
10.58 0.0549352
10.59 0.0553182
10.6 0.0575919
10.61 0.0618745
10.62 0.0683379
10.63 0.0766916
10.64 0.087037
10.65 0.0989446
10.66 0.11216
10.67 0.126319
10.68 0.140922
10.69 0.155499
10.7 0.169531
10.71 0.182505
10.72 0.193822
10.73 0.203205
10.74 0.209866
10.75 0.213776
10.76 0.214487
10.77 0.21173
10.78 0.205706
10.79 0.195863
10.8 0.18283
10.81 0.166533
10.82 0.147284
10.83 0.125621
10.84 0.10166
10.85 0.0762025
10.86 0.0496179
10.87 0.0225146
10.88 -0.0045881
10.89 -0.0310773
10.9 -0.0565467
10.91 -0.080429
10.92 -0.102346
10.93 -0.122063
10.94 -0.139009
10.95 -0.153345
10.96 -0.164651
10.97 -0.17303
10.98 -0.17856
10.99 -0.181049
11 -0.180987
11.01 -0.178244
11.02 -0.173225
11.03 -0.166151
11.04 -0.157138
11.05 -0.146637
11.06 -0.134713
11.07 -0.121731
11.08 -0.107877
11.09 -0.0933224
11.1 -0.078304
11.11 -0.0629274
11.12 -0.0473694
11.13 -0.0317373
11.14 -0.0161484
11.15 -0.000689216
11.16 0.0145141
11.17 0.0293932
11.18 0.0438362
11.19 0.0577127
11.2 0.0709686
11.21 0.0833604
11.22 0.0948647
11.23 0.105282
11.24 0.114444
11.25 0.122325
11.26 0.128547
11.27 0.133228
11.28 0.136126
11.29 0.137171
11.3 0.136439
11.31 0.13365
11.32 0.129118
11.33 0.122739
11.34 0.114686
11.35 0.105183
11.36 0.0942691
11.37 0.0823578
11.38 0.0696092
11.39 0.0563668
11.4 0.0429215
11.41 0.0296022
11.42 0.0166825
11.43 0.00450685
11.44 -0.00668893
11.45 -0.0167058
11.46 -0.0252183
11.47 -0.0322652
11.48 -0.0375605
11.49 -0.0411919
11.5 -0.0431641
11.51 -0.0434281
11.52 -0.0422759
11.53 -0.0396828
11.54 -0.0359799
11.55 -0.0313511
11.56 -0.0260185
11.57 -0.0202879
11.58 -0.0143838
11.59 -0.00858013
11.6 -0.00310174
11.61 0.00180454
11.62 0.00602756
11.63 0.00929539
11.64 0.0116133
11.65 0.0128588
11.66 0.012978
11.67 0.0120752
11.68 0.0100322
11.69 0.00708076
11.7 0.003249
11.71 -0.00132811
11.72 -0.00646954
11.73 -0.0120925
11.74 -0.0179763
11.75 -0.0239961
11.76 -0.0299907
11.77 -0.0358387
11.78 -0.0413771
11.79 -0.046543
11.8 -0.0512072
11.81 -0.0553066
11.82 -0.0588124
11.83 -0.0616041
11.84 -0.0637463
11.85 -0.0651497
11.86 -0.0658436
11.87 -0.0658462
11.88 -0.0650943
11.89 -0.0636898
11.9 -0.0615677
11.91 -0.0587917
11.92 -0.0553825
11.93 -0.0513099
11.94 -0.046671
11.95 -0.0414202
11.96 -0.0356408
11.97 -0.029363
11.98 -0.0226069
11.99 -0.0154754
12 -0.00798769
12.01 -0.000257717
12.02 0.00763954
12.03 0.015603
12.04 0.0235291
12.05 0.0312863
12.06 0.0387732
12.07 0.0458629
12.08 0.0524114
12.09 0.0583644
12.1 0.0635054
12.11 0.0678405
12.12 0.0712364
12.13 0.0736078
12.14 0.074996
12.15 0.0752003
12.16 0.0743786
12.17 0.0724513
12.18 0.0694537
12.19 0.0654982
12.2 0.0605052
12.21 0.0546885
12.22 0.0480466
12.23 0.04069
12.24 0.0327352
12.25 0.0242038
12.26 0.0152552
12.27 0.00592665
12.28 -0.00368639
12.29 -0.0135117
12.3 -0.0235027
12.31 -0.033585
12.32 -0.0437168
12.33 -0.0538443
12.34 -0.0639242
12.35 -0.0738961
12.36 -0.0837226
12.37 -0.0933225
12.38 -0.10264
12.39 -0.111603
12.4 -0.120082
12.41 -0.128038
12.42 -0.13528
12.43 -0.141746
12.44 -0.147305
12.45 -0.151758
12.46 -0.155103
12.47 -0.157046
12.48 -0.157618
12.49 -0.156679
12.5 -0.154086
12.51 -0.149955
12.52 -0.144027
12.53 -0.136531
12.54 -0.127427
12.55 -0.116774
12.56 -0.104818
12.57 -0.091525
12.58 -0.0772602
12.59 -0.0621579
12.6 -0.0464723
12.61 -0.0304725
12.62 -0.0144069
12.63 0.00145785
12.64 0.0168575
12.65 0.031539
12.66 0.0453522
12.67 0.0579531
12.68 0.0693564
12.69 0.0793255
12.7 0.08782
12.71 0.0948753
12.72 0.100319
12.73 0.104407
12.74 0.107079
12.75 0.108526
12.76 0.108917
12.77 0.108334
12.78 0.107071
12.79 0.10525
12.8 0.103109
12.81 0.100826
12.82 0.0985883
12.83 0.0965416
12.84 0.0948557
12.85 0.0936195
12.86 0.0929141
