# xPDFsuite Configuration #
[PDF]
wavelength = 0.1
dataformat = QA
inputfile = B3_Bronze-3nm_ss_011.chi
backgroundfile = B3_Li-bkg_DD155_two_ss_att.chi
mode = xray
bgscale = 0.985
composition = Ti O2
outputtype = gr
qmaxinst = 23.5
qmin = 0.1
qmax = 23.0
rmax = 40.0
rmin = 0.0
rstep = 0.01
rpoly = 0.9

[Misc]
inputdir = E:/Beamtime/PETRA-III_September-2019/BeamData/processed/Run1/B3/integration_20210218/chi/chi_w_sigmas/chi_scaled
savedir = E:/Beamtime/PETRA-III_September-2019/BeamData/processed/Run1/B3/integration_20210218
backgroundfilefull = E:/Beamtime/PETRA-III_September-2019/BeamData/processed/Run1/B3/integration_20210218/chi/chi_w_sigmas/chi_scaled/B3_Li-bkg_DD155_two_ss_att.chi

#### start data
#S 1
#L r($\AA$)  G($\AA^{-2}$)
0 0
0.01 0.00433575
0.02 0.00844129
0.03 0.0120837
0.04 0.0150549
0.05 0.0172554
0.06 0.0184357
0.07 0.0186733
0.08 0.0178642
0.09 0.0160812
0.1 0.0134572
0.11 0.0100453
0.12 0.00612464
0.13 0.00185316
0.14 -0.00250989
0.15 -0.00674833
0.16 -0.0105883
0.17 -0.0138807
0.18 -0.0163778
0.19 -0.0179807
0.2 -0.0186191
0.21 -0.018161
0.22 -0.0167503
0.23 -0.01434
0.24 -0.0111305
0.25 -0.00727029
0.26 -0.0029363
0.27 0.00161104
0.28 0.00614475
0.29 0.0104179
0.3 0.0142102
0.31 0.0172615
0.32 0.0194839
0.33 0.0206035
0.34 0.0206405
0.35 0.0195078
0.36 0.0171641
0.37 0.0137677
0.38 0.00925754
0.39 0.00389862
0.4 -0.00220896
0.41 -0.00888333
0.42 -0.0159057
0.43 -0.0231128
0.44 -0.0302931
0.45 -0.0372769
0.46 -0.0438921
0.47 -0.0500454
0.48 -0.0555299
0.49 -0.0603498
0.5 -0.0643711
0.51 -0.067541
0.52 -0.0698629
0.53 -0.0711589
0.54 -0.0715145
0.55 -0.0707674
0.56 -0.0688658
0.57 -0.0657676
0.58 -0.0611896
0.59 -0.0551892
0.6 -0.0474527
0.61 -0.0378966
0.62 -0.0264244
0.63 -0.0126794
0.64 0.00316796
0.65 0.0214433
0.66 0.0419992
0.67 0.0647637
0.68 0.0897598
0.69 0.116511
0.7 0.144893
0.71 0.17432
0.72 0.204313
0.73 0.23422
0.74 0.263414
0.75 0.290992
0.76 0.316319
0.77 0.338606
0.78 0.356878
0.79 0.370906
0.8 0.379398
0.81 0.382491
0.82 0.379618
0.83 0.370421
0.84 0.355497
0.85 0.334177
0.86 0.307687
0.87 0.276252
0.88 0.240648
0.89 0.202032
0.9 0.161074
0.91 0.119197
0.92 0.0774085
0.93 0.0369198
0.94 -0.00142152
0.95 -0.0361997
0.96 -0.0671443
0.97 -0.0933022
0.98 -0.11438
0.99 -0.130526
1 -0.141226
1.01 -0.147575
1.02 -0.149742
1.03 -0.148792
1.04 -0.145765
1.05 -0.141748
1.06 -0.138057
1.07 -0.136029
1.08 -0.136867
1.09 -0.141542
1.1 -0.151497
1.11 -0.166784
1.12 -0.188533
1.13 -0.216413
1.14 -0.250222
1.15 -0.289775
1.16 -0.333575
1.17 -0.380853
1.18 -0.429704
1.19 -0.478491
1.2 -0.525008
1.21 -0.567591
1.22 -0.603391
1.23 -0.631039
1.24 -0.648494
1.25 -0.653549
1.26 -0.646225
1.27 -0.623632
1.28 -0.587137
1.29 -0.536034
1.3 -0.470629
1.31 -0.393161
1.32 -0.303485
1.33 -0.205292
1.34 -0.100316
1.35 0.0084236
1.36 0.117942
1.37 0.224705
1.38 0.32596
1.39 0.418194
1.4 0.498367
1.41 0.564905
1.42 0.613297
1.43 0.644375
1.44 0.655267
1.45 0.645978
1.46 0.617495
1.47 0.568211
1.48 0.502107
1.49 0.419245
1.5 0.322925
1.51 0.216069
1.52 0.101097
1.53 -0.0178385
1.54 -0.137684
1.55 -0.254821
1.56 -0.366312
1.57 -0.468288
1.58 -0.559388
1.59 -0.635901
1.6 -0.697213
1.61 -0.742168
1.62 -0.769001
1.63 -0.779685
1.64 -0.7726
1.65 -0.750526
1.66 -0.714513
1.67 -0.665974
1.68 -0.608171
1.69 -0.542358
1.7 -0.471921
1.71 -0.398969
1.72 -0.326012
1.73 -0.254984
1.74 -0.188288
1.75 -0.126918
1.76 -0.0722895
1.77 -0.0253115
1.78 0.0143841
1.79 0.0456889
1.8 0.0702425
1.81 0.0882672
1.82 0.100942
1.83 0.109787
1.84 0.115809
1.85 0.120821
1.86 0.126102
1.87 0.133036
1.88 0.142528
1.89 0.155921
1.9 0.173245
1.91 0.195154
1.92 0.22139
1.93 0.251399
1.94 0.284773
1.95 0.320085
1.96 0.356236
1.97 0.391612
1.98 0.424766
1.99 0.453589
2 0.477045
2.01 0.492852
2.02 0.500071
2.03 0.497653
2.04 0.483809
2.05 0.459288
2.06 0.422428
2.07 0.374415
2.08 0.315554
2.09 0.246139
2.1 0.168377
2.11 0.0827033
2.12 -0.00830654
2.13 -0.103014
2.14 -0.199278
2.15 -0.295002
2.16 -0.387719
2.17 -0.475656
2.18 -0.556702
2.19 -0.628686
2.2 -0.690998
2.21 -0.740574
2.22 -0.778032
2.23 -0.80182
2.24 -0.811358
2.25 -0.807719
2.26 -0.788898
2.27 -0.757594
2.28 -0.713435
2.29 -0.657632
2.3 -0.592037
2.31 -0.516798
2.32 -0.434755
2.33 -0.346862
2.34 -0.255112
2.35 -0.161268
2.36 -0.0670631
2.37 0.0257973
2.38 0.115494
2.39 0.200479
2.4 0.279569
2.41 0.350583
2.42 0.413391
2.43 0.465971
2.44 0.508033
2.45 0.53913
2.46 0.557755
2.47 0.565152
2.48 0.559896
2.49 0.543167
2.5 0.515343
2.51 0.476381
2.52 0.42834
2.53 0.371175
2.54 0.307061
2.55 0.237218
2.56 0.163139
2.57 0.0868358
2.58 0.0099535
2.59 -0.0655829
2.6 -0.13802
2.61 -0.20531
2.62 -0.266463
2.63 -0.318881
2.64 -0.362348
2.65 -0.395372
2.66 -0.416938
2.67 -0.427654
2.68 -0.42561
2.69 -0.412775
2.7 -0.388849
2.71 -0.354766
2.72 -0.312328
2.73 -0.261821
2.74 -0.206003
2.75 -0.146124
2.76 -0.0842844
2.77 -0.0223176
2.78 0.0376297
2.79 0.0941005
2.8 0.145129
2.81 0.189392
2.82 0.226153
2.83 0.253553
2.84 0.272334
2.85 0.281397
2.86 0.281452
2.87 0.273224
2.88 0.256847
2.89 0.234394
2.9 0.206543
2.91 0.175254
2.92 0.142045
2.93 0.108628
2.94 0.0765365
2.95 0.0475435
2.96 0.0227837
2.97 0.00332745
2.98 -0.00954165
2.99 -0.0160418
3 -0.0150682
3.01 -0.00749054
3.02 0.00644428
3.03 0.0261783
3.04 0.0501871
3.05 0.0777107
3.06 0.106896
3.07 0.13637
3.08 0.164398
3.09 0.189723
3.1 0.210281
3.11 0.225389
3.12 0.233666
3.13 0.234136
3.14 0.226986
3.15 0.210691
3.16 0.186662
3.17 0.154647
3.18 0.115458
3.19 0.0704452
3.2 0.0200675
3.21 -0.0336194
3.22 -0.0895288
3.23 -0.146029
3.24 -0.201794
3.25 -0.255171
3.26 -0.305307
3.27 -0.350836
3.28 -0.391091
3.29 -0.425769
3.3 -0.453923
3.31 -0.476376
3.32 -0.492732
3.33 -0.50385
3.34 -0.51045
3.35 -0.513051
3.36 -0.513016
3.37 -0.511046
3.38 -0.508296
3.39 -0.505597
3.4 -0.503832
3.41 -0.503464
3.42 -0.505111
3.43 -0.508768
3.44 -0.514393
3.45 -0.521727
3.46 -0.53006
3.47 -0.538665
3.48 -0.546502
3.49 -0.552483
3.5 -0.555181
3.51 -0.553774
3.52 -0.546269
3.53 -0.532241
3.54 -0.510395
3.55 -0.479689
3.56 -0.44042
3.57 -0.390903
3.58 -0.332562
3.59 -0.265106
3.6 -0.189251
3.61 -0.106547
3.62 -0.0173428
3.63 0.0759112
3.64 0.171905
3.65 0.268575
3.66 0.364131
3.67 0.456142
3.68 0.543215
3.69 0.623054
3.7 0.694095
3.71 0.755442
3.72 0.804529
3.73 0.842103
3.74 0.866327
3.75 0.877552
3.76 0.876213
3.77 0.861409
3.78 0.835433
3.79 0.797907
3.8 0.750744
3.81 0.69524
3.82 0.632272
3.83 0.564101
3.84 0.49165
3.85 0.416801
3.86 0.340847
3.87 0.26519
3.88 0.190895
3.89 0.119265
3.9 0.0509467
3.91 -0.0133193
3.92 -0.0727222
3.93 -0.127397
3.94 -0.17637
3.95 -0.220129
3.96 -0.258411
3.97 -0.291068
3.98 -0.318697
3.99 -0.340624
4 -0.357669
4.01 -0.36962
4.02 -0.376486
4.03 -0.378751
4.04 -0.375685
4.05 -0.36804
4.06 -0.355441
4.07 -0.337897
4.08 -0.315784
4.09 -0.288447
4.1 -0.25673
4.11 -0.220393
4.12 -0.179811
4.13 -0.135542
4.14 -0.0876087
4.15 -0.0370554
4.16 0.0157212
4.17 0.0698257
4.18 0.124447
4.19 0.178619
4.2 0.231504
4.21 0.281991
4.22 0.329225
4.23 0.372477
4.24 0.410447
4.25 0.443113
4.26 0.469236
4.27 0.48883
4.28 0.501687
4.29 0.507175
4.3 0.506213
4.31 0.498226
4.32 0.484247
4.33 0.464714
4.34 0.440049
4.35 0.41151
4.36 0.379465
4.37 0.345163
4.38 0.309355
4.39 0.27292
4.4 0.236642
4.41 0.201335
4.42 0.167503
4.43 0.135682
4.44 0.106324
4.45 0.0794148
4.46 0.0554605
4.47 0.034052
4.48 0.0152415
4.49 -0.00119235
4.5 -0.0157031
4.51 -0.0283564
4.52 -0.0397793
4.53 -0.0502083
4.54 -0.0600145
4.55 -0.0694965
4.56 -0.0788656
4.57 -0.0882814
4.58 -0.0978098
4.59 -0.107421
4.6 -0.11701
4.61 -0.126354
4.62 -0.135232
4.63 -0.143271
4.64 -0.150127
4.65 -0.155499
4.66 -0.158797
4.67 -0.159948
4.68 -0.158381
4.69 -0.153995
4.7 -0.14667
4.71 -0.136036
4.72 -0.122482
4.73 -0.105738
4.74 -0.0862396
4.75 -0.0642294
4.76 -0.0399167
4.77 -0.0139352
4.78 0.0134516
4.79 0.0416157
4.8 0.0701137
4.81 0.0984225
4.82 0.126142
4.83 0.152734
4.84 0.177955
4.85 0.201477
4.86 0.223002
4.87 0.242593
4.88 0.259884
4.89 0.275167
4.9 0.288398
4.91 0.299681
4.92 0.309339
4.93 0.317334
4.94 0.3241
4.95 0.329743
4.96 0.334466
4.97 0.338481
4.98 0.341813
4.99 0.344629
5 0.346898
5.01 0.348591
5.02 0.349667
5.03 0.349886
5.04 0.349198
5.05 0.347315
5.06 0.344045
5.07 0.339251
5.08 0.332513
5.09 0.323906
5.1 0.313076
5.11 0.300026
5.12 0.284773
5.13 0.267108
5.14 0.247401
5.15 0.225552
5.16 0.201914
5.17 0.176732
5.18 0.150214
5.19 0.122821
5.2 0.0948112
5.21 0.0666061
5.22 0.0385289
5.23 0.0109593
5.24 -0.0158809
5.25 -0.0416114
5.26 -0.0661282
5.27 -0.0892559
5.28 -0.110827
5.29 -0.130965
5.3 -0.149482
5.31 -0.166635
5.32 -0.182467
5.33 -0.197103
5.34 -0.210805
5.35 -0.223623
5.36 -0.235848
5.37 -0.247591
5.38 -0.258994
5.39 -0.270179
5.4 -0.281176
5.41 -0.292029
5.42 -0.302694
5.43 -0.313088
5.44 -0.323125
5.45 -0.332569
5.46 -0.341326
5.47 -0.349129
5.48 -0.355776
5.49 -0.361146
5.5 -0.364852
5.51 -0.366962
5.52 -0.367188
5.53 -0.365523
5.54 -0.362015
5.55 -0.356494
5.56 -0.349306
5.57 -0.340414
5.58 -0.330131
5.59 -0.318717
5.6 -0.306396
5.61 -0.293582
5.62 -0.280573
5.63 -0.267749
5.64 -0.255428
5.65 -0.244015
5.66 -0.233688
5.67 -0.224868
5.68 -0.217645
5.69 -0.212195
5.7 -0.208738
5.71 -0.207108
5.72 -0.207555
5.73 -0.209795
5.74 -0.21378
5.75 -0.219401
5.76 -0.226318
5.77 -0.234475
5.78 -0.243474
5.79 -0.253112
5.8 -0.263112
5.81 -0.273208
5.82 -0.283127
5.83 -0.292657
5.84 -0.301558
5.85 -0.309608
5.86 -0.316715
5.87 -0.32254
5.88 -0.327129
5.89 -0.33025
5.9 -0.331803
5.91 -0.3318
5.92 -0.329914
5.93 -0.326328
5.94 -0.320801
5.95 -0.313324
5.96 -0.303939
5.97 -0.292361
5.98 -0.278856
5.99 -0.26321
6 -0.24555
6.01 -0.225986
6.02 -0.204424
6.03 -0.181241
6.04 -0.156438
6.05 -0.130364
6.06 -0.103292
6.07 -0.0755132
6.08 -0.047465
6.09 -0.019553
6.1 0.00776703
6.11 0.0340599
6.12 0.0587249
6.13 0.0815105
6.14 0.101687
6.15 0.119094
6.16 0.133348
6.17 0.144002
6.18 0.151262
6.19 0.154554
6.2 0.154359
6.21 0.150676
6.22 0.143702
6.23 0.134103
6.24 0.122036
6.25 0.108422
6.26 0.0938194
6.27 0.079042
6.28 0.0648114
6.29 0.0521478
6.3 0.0416251
6.31 0.0341461
6.32 0.0304559
6.33 0.0308118
6.34 0.0364019
6.35 0.0468163
6.36 0.0626875
6.37 0.0839229
6.38 0.110079
6.39 0.141445
6.4 0.176824
6.41 0.215966
6.42 0.257866
6.43 0.301576
6.44 0.346139
6.45 0.390405
6.46 0.433199
6.47 0.473415
6.48 0.510128
6.49 0.54185
6.5 0.568329
6.51 0.588117
6.52 0.601029
6.53 0.606685
6.54 0.604215
6.55 0.594479
6.56 0.576658
6.57 0.551768
6.58 0.520172
6.59 0.482191
6.6 0.439226
6.61 0.391554
6.62 0.340654
6.63 0.287389
6.64 0.232823
6.65 0.178026
6.66 0.124064
6.67 0.0717732
6.68 0.0220179
6.69 -0.0243528
6.7 -0.067122
6.71 -0.105211
6.72 -0.138935
6.73 -0.167842
6.74 -0.191871
6.75 -0.211517
6.76 -0.226289
6.77 -0.237204
6.78 -0.244288
6.79 -0.24805
6.8 -0.249122
6.81 -0.247649
6.82 -0.244434
6.83 -0.239731
6.84 -0.233995
6.85 -0.227576
6.86 -0.220693
6.87 -0.213601
6.88 -0.20641
6.89 -0.199195
6.9 -0.191968
6.91 -0.184682
6.92 -0.177275
6.93 -0.169632
6.94 -0.161651
6.95 -0.153243
6.96 -0.144271
6.97 -0.134747
6.98 -0.124578
6.99 -0.113838
7 -0.102594
7.01 -0.0909441
7.02 -0.0790899
7.03 -0.0672285
7.04 -0.0556113
7.05 -0.0444903
7.06 -0.0341995
7.07 -0.0249022
7.08 -0.01702
7.09 -0.0106275
7.1 -0.00594911
7.11 -0.00317867
7.12 -0.00218343
7.13 -0.00321555
7.14 -0.00592948
7.15 -0.0102575
7.16 -0.0159565
7.17 -0.0226256
7.18 -0.029997
7.19 -0.0375558
7.2 -0.0448841
7.21 -0.0514743
7.22 -0.056972
7.23 -0.0606923
7.24 -0.0624944
7.25 -0.0618641
7.26 -0.0585427
7.27 -0.0525156
7.28 -0.0432845
7.29 -0.0312832
7.3 -0.0163279
7.31 0.00127181
7.32 0.0211404
7.33 0.0431204
7.34 0.0665034
7.35 0.0909221
7.36 0.115732
7.37 0.140391
7.38 0.16421
7.39 0.186743
7.4 0.207264
7.41 0.22538
7.42 0.240705
7.43 0.2526
7.44 0.261201
7.45 0.265889
7.46 0.266898
7.47 0.264205
7.48 0.257696
7.49 0.247965
7.5 0.234868
7.51 0.219097
7.52 0.200956
7.53 0.18084
7.54 0.159382
7.55 0.136928
7.56 0.114087
7.57 0.0912892
7.58 0.0690282
7.59 0.0476202
7.6 0.0276046
7.61 0.00910624
7.62 -0.00754364
7.63 -0.0221252
7.64 -0.0347054
7.65 -0.0448797
7.66 -0.052989
7.67 -0.0589039
7.68 -0.0627387
7.69 -0.0647541
7.7 -0.0648596
7.71 -0.0635062
7.72 -0.0607542
7.73 -0.0568679
7.74 -0.0521053
7.75 -0.046604
7.76 -0.0406728
7.77 -0.0344784
7.78 -0.0282471
7.79 -0.0221539
7.8 -0.01642
7.81 -0.0111602
7.82 -0.00658759
7.83 -0.00281325
7.84 6.06923e-05
7.85 0.00182084
7.86 0.00250808
7.87 0.00190519
7.88 4.1588e-05
7.89 -0.00311897
7.9 -0.00769363
7.91 -0.0135161
7.92 -0.0207141
7.93 -0.0290976
7.94 -0.0385976
7.95 -0.0491355
7.96 -0.060458
7.97 -0.0724736
7.98 -0.0848927
7.99 -0.0975098
8 -0.110055
8.01 -0.122298
8.02 -0.133899
8.03 -0.144676
8.04 -0.154351
8.05 -0.162656
8.06 -0.169543
8.07 -0.174608
8.08 -0.177989
8.09 -0.179508
8.1 -0.179153
8.11 -0.177118
8.12 -0.173247
8.13 -0.167963
8.14 -0.161336
8.15 -0.153648
8.16 -0.145212
8.17 -0.136259
8.18 -0.127156
8.19 -0.118184
8.2 -0.109644
8.21 -0.101742
8.22 -0.0948029
8.23 -0.0888548
8.24 -0.0841077
8.25 -0.0805432
8.26 -0.0780966
8.27 -0.0767682
8.28 -0.0762566
8.29 -0.0764165
8.3 -0.0769018
8.31 -0.0774047
8.32 -0.0775164
8.33 -0.0769272
8.34 -0.0751469
8.35 -0.0718906
8.36 -0.0668421
8.37 -0.0595591
8.38 -0.0500779
8.39 -0.0379341
8.4 -0.0233094
8.41 -0.00616116
8.42 0.0135138
8.43 0.0352761
8.44 0.0591159
8.45 0.0844313
8.46 0.110877
8.47 0.137947
8.48 0.16511
8.49 0.191762
8.5 0.217412
8.51 0.241489
8.52 0.26342
8.53 0.282987
8.54 0.299359
8.55 0.312682
8.56 0.322502
8.57 0.328699
8.58 0.331518
8.59 0.330517
8.6 0.326409
8.61 0.319152
8.62 0.309172
8.63 0.296976
8.64 0.282772
8.65 0.26729
8.66 0.250887
8.67 0.234112
8.68 0.217399
8.69 0.201239
8.7 0.185917
8.71 0.171844
8.72 0.159203
8.73 0.148107
8.74 0.138797
8.75 0.131052
8.76 0.124979
8.77 0.1203
8.78 0.116812
8.79 0.114308
8.8 0.11239
8.81 0.110782
8.82 0.109101
8.83 0.10703
8.84 0.104182
8.85 0.100368
8.86 0.0951731
8.87 0.0885265
8.88 0.0802422
8.89 0.0701527
8.9 0.0584139
8.91 0.0448229
8.92 0.0297005
8.93 0.0131231
8.94 -0.00470818
8.95 -0.0234461
8.96 -0.0428975
8.97 -0.0626417
8.98 -0.0823691
8.99 -0.101692
9 -0.120331
9.01 -0.137773
9.02 -0.153871
9.03 -0.168216
9.04 -0.180534
9.05 -0.190753
9.06 -0.198342
9.07 -0.203526
9.08 -0.205973
9.09 -0.205702
9.1 -0.202844
9.11 -0.197116
9.12 -0.188985
9.13 -0.178327
9.14 -0.165438
9.15 -0.150581
9.16 -0.133822
9.17 -0.115661
9.18 -0.0962455
9.19 -0.0759903
9.2 -0.0552172
9.21 -0.0342736
9.22 -0.0135107
9.23 0.00668017
9.24 0.0259849
9.25 0.0440982
9.26 0.060589
9.27 0.0753764
9.28 0.0879647
9.29 0.0983396
9.3 0.1063
9.31 0.111585
9.32 0.114404
9.33 0.114382
9.34 0.111856
9.35 0.106807
9.36 0.0992873
9.37 0.0896904
9.38 0.077932
9.39 0.0645209
9.4 0.0496127
9.41 0.0334886
9.42 0.0165099
9.43 -0.00114022
9.44 -0.0191004
9.45 -0.0371553
9.46 -0.0550618
9.47 -0.0726624
9.48 -0.0897316
9.49 -0.106235
9.5 -0.122051
9.51 -0.137153
9.52 -0.151585
9.53 -0.165287
9.54 -0.17841
9.55 -0.190963
9.56 -0.203041
9.57 -0.214726
9.58 -0.226031
9.59 -0.237035
9.6 -0.247703
9.61 -0.258011
9.62 -0.267895
9.63 -0.27717
9.64 -0.285751
9.65 -0.293336
9.66 -0.299732
9.67 -0.304699
9.68 -0.30779
9.69 -0.308942
9.7 -0.307601
9.71 -0.303695
9.72 -0.296986
9.73 -0.287093
9.74 -0.274254
9.75 -0.258015
9.76 -0.238754
9.77 -0.216508
9.78 -0.191389
9.79 -0.163969
9.8 -0.134345
9.81 -0.103251
9.82 -0.0711289
9.83 -0.0386011
9.84 -0.0062657
9.85 0.0251282
9.86 0.0550688
9.87 0.0828865
9.88 0.107949
9.89 0.130054
9.9 0.148238
9.91 0.162757
9.92 0.173107
9.93 0.179218
9.94 0.181407
9.95 0.179239
9.96 0.17357
9.97 0.164405
9.98 0.152288
9.99 0.13782
10 0.121312
10.01 0.103588
10.02 0.0850967
10.03 0.0664659
10.04 0.0481757
10.05 0.0308027
10.06 0.0146145
10.07 7.74313e-05
10.08 -0.0126543
10.09 -0.0234835
10.1 -0.0321722
10.11 -0.0390098
10.12 -0.0438869
10.13 -0.0471366
10.14 -0.0489767
10.15 -0.0496073
10.16 -0.0494348
10.17 -0.0486659
10.18 -0.0476406
10.19 -0.0465843
10.2 -0.0457223
10.21 -0.0451703
10.22 -0.0450664
10.23 -0.0453838
10.24 -0.0460941
10.25 -0.0470937
10.26 -0.0482086
10.27 -0.0492286
10.28 -0.0499273
10.29 -0.05005
10.3 -0.0493102
10.31 -0.047577
10.32 -0.0444628
10.33 -0.0400018
10.34 -0.0340059
10.35 -0.0264403
10.36 -0.0174694
10.37 -0.00700004
10.38 0.00456126
10.39 0.0170633
10.4 0.0301555
10.41 0.0434845
10.42 0.056647
10.43 0.0692874
10.44 0.0809781
10.45 0.091372
10.46 0.100255
10.47 0.107161
10.48 0.112192
10.49 0.115064
10.5 0.115891
10.51 0.114831
10.52 0.111911
10.53 0.107629
10.54 0.102194
10.55 0.0961146
10.56 0.0898137
10.57 0.0838064
10.58 0.0784983
10.59 0.0744464
10.6 0.0719626
10.61 0.0713592
10.62 0.0730351
10.63 0.0768725
10.64 0.0832013
10.65 0.0916976
10.66 0.102228
10.67 0.114547
10.68 0.1281
10.69 0.142521
10.7 0.15714
10.71 0.171392
10.72 0.18457
10.73 0.196212
10.74 0.205413
10.75 0.211939
10.76 0.215191
10.77 0.214728
10.78 0.21065
10.79 0.202226
10.8 0.190081
10.81 0.174059
10.82 0.154472
10.83 0.131933
10.84 0.106555
10.85 0.0793173
10.86 0.0506814
10.87 0.0214191
10.88 -0.00780427
10.89 -0.0361901
10.9 -0.0632189
10.91 -0.0881576
10.92 -0.110535
10.93 -0.130073
10.94 -0.146086
10.95 -0.15884
10.96 -0.16789
10.97 -0.173474
10.98 -0.175798
10.99 -0.174814
11 -0.17122
11.01 -0.165095
11.02 -0.157052
11.03 -0.147503
11.04 -0.136823
11.05 -0.125527
11.06 -0.113938
11.07 -0.102415
11.08 -0.0911996
11.09 -0.0805199
11.1 -0.0704215
11.11 -0.0610264
11.12 -0.0522296
11.13 -0.0439623
11.14 -0.0360897
11.15 -0.0284132
11.16 -0.0207473
11.17 -0.0128932
11.18 -0.00467178
11.19 0.0040898
11.2 0.0134363
11.21 0.0235164
11.22 0.0342179
11.23 0.0455045
11.24 0.0572167
11.25 0.0691316
11.26 0.0809731
11.27 0.0924416
11.28 0.103172
11.29 0.112782
11.3 0.12103
11.31 0.127329
11.32 0.131664
11.33 0.133607
11.34 0.133041
11.35 0.130011
11.36 0.1242
11.37 0.116068
11.38 0.105556
11.39 0.0930612
11.4 0.0789698
11.41 0.0635887
11.42 0.0475311
11.43 0.031241
11.44 0.015282
11.45 0.000118949
11.46 -0.0136267
11.47 -0.0257116
11.48 -0.0355374
11.49 -0.0429747
11.5 -0.0478367
11.51 -0.0498331
11.52 -0.0492914
11.53 -0.045993
11.54 -0.0404141
11.55 -0.0327922
11.56 -0.0234456
11.57 -0.0129581
11.58 -0.00169713
11.59 0.00973653
11.6 0.020872
11.61 0.0311577
11.62 0.0402691
11.63 0.0475877
11.64 0.0530134
11.65 0.0562153
11.66 0.056999
11.67 0.0555352
11.68 0.0515147
11.69 0.0454323
11.7 0.0373475
11.71 0.0275851
11.72 0.0165893
11.73 0.00462139
11.74 -0.00776433
11.75 -0.0201902
11.76 -0.0322068
11.77 -0.0434922
11.78 -0.0535496
11.79 -0.062269
11.8 -0.0692953
11.81 -0.0745262
11.82 -0.0779705
11.83 -0.0794114
11.84 -0.079175
11.85 -0.0772097
11.86 -0.0737986
11.87 -0.0691845
11.88 -0.0635346
11.89 -0.0572303
11.9 -0.050473
11.91 -0.0435626
11.92 -0.0367138
11.93 -0.0301551
11.94 -0.0239982
11.95 -0.0184087
11.96 -0.0133987
11.97 -0.00897971
11.98 -0.00514465
11.99 -0.0017549
12 0.00125324
12.01 0.0040619
12.02 0.00681022
12.03 0.00967103
12.04 0.0127694
12.05 0.0162854
12.06 0.0202753
12.07 0.0248238
12.08 0.0299737
12.09 0.0356508
12.1 0.0418619
12.11 0.0484237
12.12 0.0552105
12.13 0.0620144
12.14 0.0686391
12.15 0.0747791
12.16 0.0802584
12.17 0.0847841
12.18 0.0881096
12.19 0.0901314
12.2 0.0904476
12.21 0.0891654
12.22 0.086045
12.23 0.08109
12.24 0.0744115
12.25 0.0658608
12.26 0.0558049
12.27 0.0442533
12.28 0.0314875
12.29 0.017768
12.3 0.00328757
12.31 -0.0115925
12.32 -0.0266288
12.33 -0.0415196
12.34 -0.0560274
12.35 -0.0698427
12.36 -0.0828479
12.37 -0.0947556
12.38 -0.105498
12.39 -0.11498
12.4 -0.123035
12.41 -0.129797
12.42 -0.1351
12.43 -0.13911
12.44 -0.141859
12.45 -0.143362
12.46 -0.143829
12.47 -0.143216
12.48 -0.141732
12.49 -0.139428
12.5 -0.13636
12.51 -0.132665
12.52 -0.128308
12.53 -0.123407
12.54 -0.11796
12.55 -0.11197
12.56 -0.105493
12.57 -0.0984539
12.58 -0.0909285
12.59 -0.0828861
12.6 -0.074338
12.61 -0.0653451
12.62 -0.0558775
12.63 -0.0460574
12.64 -0.0359227
12.65 -0.0255748
12.66 -0.0151219
12.67 -0.00468731
12.68 0.00560284
12.69 0.0155966
12.7 0.0251518
12.71 0.0341649
12.72 0.0424212
12.73 0.0499107
12.74 0.0564549
12.75 0.0620245
12.76 0.0666105
12.77 0.0700977
12.78 0.0726435
12.79 0.0741938
12.8 0.0749027
12.81 0.0748858
12.82 0.0742394
12.83 0.0731877
