# xPDFsuite Configuration #
[PDF]
wavelength = 0.1
dataformat = QA
inputfile = B3_Bronze-3nm_ss_039.chi
backgroundfile = B3_Li-bkg_DD155_two_ss_att.chi
mode = xray
bgscale = 0.985
composition = Ti O2
outputtype = gr
qmaxinst = 23.5
qmin = 0.1
qmax = 23.0
rmax = 40.0
rmin = 0.0
rstep = 0.01
rpoly = 0.9

[Misc]
inputdir = E:/Beamtime/PETRA-III_September-2019/BeamData/processed/Run1/B3/integration_20210218/chi/chi_w_sigmas/chi_scaled
savedir = E:/Beamtime/PETRA-III_September-2019/BeamData/processed/Run1/B3/integration_20210218
backgroundfilefull = E:/Beamtime/PETRA-III_September-2019/BeamData/processed/Run1/B3/integration_20210218/chi/chi_w_sigmas/chi_scaled/B3_Li-bkg_DD155_two_ss_att.chi

#### start data
#S 1
#L r($\AA$)  G($\AA^{-2}$)
0 0
0.01 0.00271545
0.02 0.00528502
0.03 0.00756121
0.04 0.00941245
0.05 0.0107762
0.06 0.0114952
0.07 0.0116195
0.08 0.0110846
0.09 0.00993824
0.1 0.0082657
0.11 0.0061034
0.12 0.00362836
0.13 0.000943089
0.14 -0.0017875
0.15 -0.00442614
0.16 -0.00679736
0.17 -0.00880839
0.18 -0.0103009
0.19 -0.0112134
0.2 -0.0115021
0.21 -0.011083
0.22 -0.0100495
0.23 -0.00837145
0.24 -0.00617795
0.25 -0.00356482
0.26 -0.000646449
0.27 0.00240796
0.28 0.00544869
0.29 0.00831148
0.3 0.0108464
0.31 0.0128712
0.32 0.0143176
0.33 0.0149793
0.34 0.0148502
0.35 0.0138412
0.36 0.0118815
0.37 0.00905345
0.38 0.00524204
0.39 0.000607722
0.4 -0.00483938
0.41 -0.0110277
0.42 -0.0178089
0.43 -0.0251587
0.44 -0.0328827
0.45 -0.0408886
0.46 -0.0490291
0.47 -0.0571658
0.48 -0.0651193
0.49 -0.0727514
0.5 -0.0798561
0.51 -0.0862299
0.52 -0.0917259
0.53 -0.0959565
0.54 -0.0988548
0.55 -0.100027
0.56 -0.0992415
0.57 -0.0963371
0.58 -0.0907525
0.59 -0.0825943
0.6 -0.0713514
0.61 -0.0569853
0.62 -0.0394617
0.63 -0.0183951
0.64 0.00575495
0.65 0.0332314
0.66 0.0635749
0.67 0.0964519
0.68 0.131563
0.69 0.168123
0.7 0.205612
0.71 0.243162
0.72 0.279999
0.73 0.315081
0.74 0.34775
0.75 0.376685
0.76 0.401351
0.77 0.420875
0.78 0.434235
0.79 0.44153
0.8 0.441412
0.81 0.434502
0.82 0.420473
0.83 0.399346
0.84 0.372155
0.85 0.338654
0.86 0.300485
0.87 0.258295
0.88 0.213284
0.89 0.166784
0.9 0.120026
0.91 0.0743215
0.92 0.0309475
0.93 -0.00888037
0.94 -0.0445348
0.95 -0.0744762
0.96 -0.0989761
0.97 -0.11724
0.98 -0.129415
0.99 -0.136086
1 -0.137178
1.01 -0.134252
1.02 -0.127966
1.03 -0.119802
1.04 -0.111097
1.05 -0.10347
1.06 -0.0981994
1.07 -0.0970073
1.08 -0.101018
1.09 -0.111122
1.1 -0.128819
1.11 -0.15367
1.12 -0.186708
1.13 -0.227082
1.14 -0.274194
1.15 -0.327396
1.16 -0.384708
1.17 -0.444837
1.18 -0.505468
1.19 -0.564572
1.2 -0.61947
1.21 -0.668448
1.22 -0.708171
1.23 -0.73743
1.24 -0.754098
1.25 -0.755977
1.26 -0.74348
1.27 -0.713698
1.28 -0.668564
1.29 -0.607645
1.3 -0.531665
1.31 -0.4433
1.32 -0.34282
1.33 -0.234284
1.34 -0.119784
1.35 -0.00264925
1.36 0.114036
1.37 0.226385
1.38 0.331825
1.39 0.426755
1.4 0.508284
1.41 0.575094
1.42 0.622806
1.43 0.652681
1.44 0.662128
1.45 0.651531
1.46 0.622184
1.47 0.572902
1.48 0.50782
1.49 0.427339
1.5 0.33486
1.51 0.233334
1.52 0.125331
1.53 0.0147151
1.54 -0.0954761
1.55 -0.201967
1.56 -0.302113
1.57 -0.392386
1.58 -0.471826
1.59 -0.537153
1.6 -0.588119
1.61 -0.623912
1.62 -0.643203
1.63 -0.648025
1.64 -0.637182
1.65 -0.613351
1.66 -0.577629
1.67 -0.53143
1.68 -0.477641
1.69 -0.417468
1.7 -0.353775
1.71 -0.288349
1.72 -0.22325
1.73 -0.159983
1.74 -0.100445
1.75 -0.0452958
1.76 0.00444471
1.77 0.0482006
1.78 0.0863749
1.79 0.118256
1.8 0.145179
1.81 0.167398
1.82 0.185839
1.83 0.201614
1.84 0.215434
1.85 0.228509
1.86 0.241611
1.87 0.255517
1.88 0.270668
1.89 0.287602
1.9 0.306152
1.91 0.326317
1.92 0.347598
1.93 0.369378
1.94 0.390768
1.95 0.41087
1.96 0.428415
1.97 0.442312
1.98 0.451579
1.99 0.454499
2 0.450884
2.01 0.439046
2.02 0.41886
2.03 0.389965
2.04 0.351467
2.05 0.304535
2.06 0.248444
2.07 0.184618
2.08 0.113762
2.09 0.0366682
2.1 -0.0448226
2.11 -0.129773
2.12 -0.216255
2.13 -0.302812
2.14 -0.387642
2.15 -0.469459
2.16 -0.546103
2.17 -0.616719
2.18 -0.679768
2.19 -0.73379
2.2 -0.778726
2.21 -0.81223
2.22 -0.835209
2.23 -0.846554
2.24 -0.845952
2.25 -0.834378
2.26 -0.810166
2.27 -0.775493
2.28 -0.729905
2.29 -0.6742
2.3 -0.609737
2.31 -0.536252
2.32 -0.455992
2.33 -0.369405
2.34 -0.277978
2.35 -0.183133
2.36 -0.0860307
2.37 0.0116129
2.38 0.108319
2.39 0.202461
2.4 0.292683
2.41 0.376755
2.42 0.453972
2.43 0.522006
2.44 0.579943
2.45 0.62679
2.46 0.660319
2.47 0.681288
2.48 0.687465
2.49 0.679615
2.5 0.657671
2.51 0.620947
2.52 0.571665
2.53 0.509168
2.54 0.436013
2.55 0.353483
2.56 0.263186
2.57 0.167872
2.58 0.0693444
2.59 -0.0295733
2.6 -0.126567
2.61 -0.218846
2.62 -0.304732
2.63 -0.380801
2.64 -0.446309
2.65 -0.499114
2.66 -0.537614
2.67 -0.562315
2.68 -0.570519
2.69 -0.564567
2.7 -0.543884
2.71 -0.509526
2.72 -0.463758
2.73 -0.406755
2.74 -0.342134
2.75 -0.271391
2.76 -0.197219
2.77 -0.122015
2.78 -0.0484004
2.79 0.0216256
2.8 0.0856408
2.81 0.141931
2.82 0.189523
2.83 0.226163
2.84 0.252675
2.85 0.267758
2.86 0.272253
2.87 0.267042
2.88 0.252327
2.89 0.230569
2.9 0.202614
2.91 0.170774
2.92 0.13683
2.93 0.102774
2.94 0.070346
2.95 0.0415489
2.96 0.0176055
2.97 -0.00034835
2.98 -0.010983
2.99 -0.0146517
3 -0.0102939
3.01 0.0009962
3.02 0.0187909
3.03 0.042287
3.04 0.0697549
3.05 0.100135
3.06 0.131428
3.07 0.162059
3.08 0.19012
3.09 0.214383
3.1 0.232589
3.11 0.244261
3.12 0.248039
3.13 0.243109
3.14 0.229911
3.15 0.207087
3.16 0.176382
3.17 0.137794
3.18 0.0924294
3.19 0.0418379
3.2 -0.0131768
3.21 -0.0705187
3.22 -0.128886
3.23 -0.186608
3.24 -0.242424
3.25 -0.294599
3.26 -0.342568
3.27 -0.385041
3.28 -0.421624
3.29 -0.452263
3.3 -0.476273
3.31 -0.494744
3.32 -0.507561
3.33 -0.515786
3.34 -0.520291
3.35 -0.521806
3.36 -0.521621
3.37 -0.520535
3.38 -0.519531
3.39 -0.519289
3.4 -0.520488
3.41 -0.52327
3.42 -0.527928
3.43 -0.534102
3.44 -0.541404
3.45 -0.549131
3.46 -0.556409
3.47 -0.562
3.48 -0.564852
3.49 -0.56368
3.5 -0.556919
3.51 -0.544019
3.52 -0.522843
3.53 -0.493478
3.54 -0.454862
3.55 -0.406383
3.56 -0.348864
3.57 -0.281151
3.58 -0.20522
3.59 -0.12137
3.6 -0.0309183
3.61 0.0642761
3.62 0.163001
3.63 0.262877
3.64 0.362075
3.65 0.458404
3.66 0.55026
3.67 0.63481
3.68 0.711371
3.69 0.77764
3.7 0.832575
3.71 0.875829
3.72 0.905204
3.73 0.922221
3.74 0.925552
3.75 0.916192
3.76 0.895076
3.77 0.861966
3.78 0.819386
3.79 0.767521
3.8 0.708407
3.81 0.643447
3.82 0.573778
3.83 0.50128
3.84 0.427011
3.85 0.352396
3.86 0.278447
3.87 0.206275
3.88 0.136413
3.89 0.0698504
3.9 0.00676319
3.91 -0.0524491
3.92 -0.107342
3.93 -0.158228
3.94 -0.204439
3.95 -0.246447
3.96 -0.284038
3.97 -0.317014
3.98 -0.345735
3.99 -0.36939
4 -0.38843
4.01 -0.402349
4.02 -0.410768
4.03 -0.413891
4.04 -0.410483
4.05 -0.401166
4.06 -0.385213
4.07 -0.362444
4.08 -0.333276
4.09 -0.29675
4.1 -0.254091
4.11 -0.205059
4.12 -0.150341
4.13 -0.0908739
4.14 -0.0269964
4.15 0.0397099
4.16 0.108386
4.17 0.177614
4.18 0.246169
4.19 0.312417
4.2 0.375355
4.21 0.433283
4.22 0.485186
4.23 0.530221
4.24 0.566689
4.25 0.594966
4.26 0.613558
4.27 0.622892
4.28 0.623021
4.29 0.613501
4.3 0.59588
4.31 0.569837
4.32 0.537001
4.33 0.498233
4.34 0.454445
4.35 0.407276
4.36 0.357582
4.37 0.306851
4.38 0.256121
4.39 0.206555
4.4 0.158871
4.41 0.1142
4.42 0.0727906
4.43 0.0351941
4.44 0.00176145
4.45 -0.0278323
4.46 -0.0530895
4.47 -0.0748223
4.48 -0.0931263
4.49 -0.108456
4.5 -0.121492
4.51 -0.132439
4.52 -0.142094
4.53 -0.150787
4.54 -0.158952
4.55 -0.166899
4.56 -0.174836
4.57 -0.182856
4.58 -0.190951
4.59 -0.198989
4.6 -0.206773
4.61 -0.213927
4.62 -0.220179
4.63 -0.225024
4.64 -0.22807
4.65 -0.228999
4.66 -0.227145
4.67 -0.222542
4.68 -0.214609
4.69 -0.203373
4.7 -0.188822
4.71 -0.170703
4.72 -0.149574
4.73 -0.12532
4.74 -0.098531
4.75 -0.0695887
4.76 -0.0388788
4.77 -0.00708158
4.78 0.0253656
4.79 0.0578418
4.8 0.0898605
4.81 0.120857
4.82 0.150545
4.83 0.178341
4.84 0.204165
4.85 0.227755
4.86 0.248907
4.87 0.267827
4.88 0.28422
4.89 0.298506
4.9 0.310714
4.91 0.321021
4.92 0.329789
4.93 0.337017
4.94 0.343126
4.95 0.348209
4.96 0.352429
4.97 0.355947
4.98 0.358718
4.99 0.360853
5 0.36225
5.01 0.362821
5.02 0.362502
5.03 0.360984
5.04 0.35826
5.05 0.354024
5.06 0.348139
5.07 0.340535
5.08 0.330859
5.09 0.319297
5.1 0.305597
5.11 0.289879
5.12 0.272253
5.13 0.252653
5.14 0.231478
5.15 0.208748
5.16 0.184818
5.17 0.159935
5.18 0.134328
5.19 0.108336
5.2 0.0821876
5.21 0.0561467
5.22 0.0304118
5.23 0.0052016
5.24 -0.019414
5.25 -0.0432493
5.26 -0.066326
5.27 -0.0886083
5.28 -0.110079
5.29 -0.130856
5.3 -0.150904
5.31 -0.17037
5.32 -0.189285
5.33 -0.207689
5.34 -0.225653
5.35 -0.243105
5.36 -0.260075
5.37 -0.27646
5.38 -0.292132
5.39 -0.307022
5.4 -0.320796
5.41 -0.333414
5.42 -0.344572
5.43 -0.354043
5.44 -0.361756
5.45 -0.367226
5.46 -0.370614
5.47 -0.371609
5.48 -0.370199
5.49 -0.366509
5.5 -0.360307
5.51 -0.352052
5.52 -0.34172
5.53 -0.329666
5.54 -0.316228
5.55 -0.301651
5.56 -0.286446
5.57 -0.270954
5.58 -0.255623
5.59 -0.240818
5.6 -0.227014
5.61 -0.214415
5.62 -0.203476
5.63 -0.194325
5.64 -0.187122
5.65 -0.182136
5.66 -0.179155
5.67 -0.178422
5.68 -0.179649
5.69 -0.182744
5.7 -0.187611
5.71 -0.193871
5.72 -0.201469
5.73 -0.21002
5.74 -0.219333
5.75 -0.229189
5.76 -0.23935
5.77 -0.249666
5.78 -0.259972
5.79 -0.27016
5.8 -0.280139
5.81 -0.289876
5.82 -0.299294
5.83 -0.308411
5.84 -0.317189
5.85 -0.325595
5.86 -0.333622
5.87 -0.341126
5.88 -0.348084
5.89 -0.354308
5.9 -0.359612
5.91 -0.363856
5.92 -0.366591
5.93 -0.367745
5.94 -0.366856
5.95 -0.363646
5.96 -0.357949
5.97 -0.349131
5.98 -0.337373
5.99 -0.322174
6 -0.303585
6.01 -0.281693
6.02 -0.25625
6.03 -0.227885
6.04 -0.196575
6.05 -0.162952
6.06 -0.127525
6.07 -0.090841
6.08 -0.0537018
6.09 -0.0168461
6.1 0.0189288
6.11 0.0528855
6.12 0.0840403
6.13 0.112042
6.14 0.135785
6.15 0.155145
6.16 0.169667
6.17 0.178865
6.18 0.183237
6.19 0.182225
6.2 0.176747
6.21 0.167079
6.22 0.153818
6.23 0.138028
6.24 0.120357
6.25 0.102065
6.26 0.0841357
6.27 0.0677691
6.28 0.0537801
6.29 0.043711
6.3 0.0379041
6.31 0.0374332
6.32 0.0429261
6.33 0.0543025
6.34 0.0726941
6.35 0.0970602
6.36 0.127694
6.37 0.163934
6.38 0.204834
6.39 0.250002
6.4 0.297839
6.41 0.347434
6.42 0.397362
6.43 0.446417
6.44 0.492984
6.45 0.536154
6.46 0.574319
6.47 0.6066
6.48 0.632282
6.49 0.649875
6.5 0.65985
6.51 0.660946
6.52 0.653686
6.53 0.638227
6.54 0.614313
6.55 0.583412
6.56 0.545376
6.57 0.501715
6.58 0.453265
6.59 0.400927
6.6 0.34613
6.61 0.289734
6.62 0.233009
6.63 0.176897
6.64 0.122457
6.65 0.0702629
6.66 0.0214084
6.67 -0.0239531
6.68 -0.0652828
6.69 -0.10222
6.7 -0.13508
6.71 -0.163256
6.72 -0.18752
6.73 -0.207843
6.74 -0.224551
6.75 -0.238276
6.76 -0.248981
6.77 -0.257506
6.78 -0.264033
6.79 -0.268962
6.8 -0.272669
6.81 -0.275246
6.82 -0.277019
6.83 -0.278007
6.84 -0.278266
6.85 -0.277809
6.86 -0.276454
6.87 -0.274206
6.88 -0.270829
6.89 -0.266212
6.9 -0.26027
6.91 -0.252724
6.92 -0.243702
6.93 -0.233003
6.94 -0.22076
6.95 -0.207084
6.96 -0.192027
6.97 -0.175965
6.98 -0.159072
6.99 -0.141759
7 -0.124369
7.01 -0.107342
7.02 -0.0910119
7.03 -0.0758926
7.04 -0.0622493
7.05 -0.05041
7.06 -0.0407606
7.07 -0.0332463
7.08 -0.0282883
7.09 -0.0256239
7.1 -0.0252655
7.11 -0.0271008
7.12 -0.0306826
7.13 -0.035895
7.14 -0.0421215
7.15 -0.0489775
7.16 -0.0559205
7.17 -0.0624774
7.18 -0.0679911
7.19 -0.0721083
7.2 -0.0742825
7.21 -0.0740762
7.22 -0.0713793
7.23 -0.065513
7.24 -0.0567892
7.25 -0.0449022
7.26 -0.0299682
7.27 -0.0123114
7.28 0.00815668
7.29 0.0307182
7.3 0.0551678
7.31 0.0809275
7.32 0.107467
7.33 0.134248
7.34 0.160698
7.35 0.186216
7.36 0.210286
7.37 0.232498
7.38 0.252166
7.39 0.269249
7.4 0.283126
7.41 0.293782
7.42 0.301115
7.43 0.304789
7.44 0.305246
7.45 0.302175
7.46 0.296038
7.47 0.287009
7.48 0.275208
7.49 0.261215
7.5 0.245087
7.51 0.227391
7.52 0.208413
7.53 0.188481
7.54 0.167998
7.55 0.147234
7.56 0.126519
7.57 0.106105
7.58 0.086265
7.59 0.0671317
7.6 0.0490178
7.61 0.0319423
7.62 0.0160909
7.63 0.00158574
7.64 -0.0116175
7.65 -0.023234
7.66 -0.0334509
7.67 -0.0421264
7.68 -0.049261
7.69 -0.0549684
7.7 -0.0590586
7.71 -0.0617994
7.72 -0.0631212
7.73 -0.0631447
7.74 -0.0620317
7.75 -0.0597776
7.76 -0.0566818
7.77 -0.0528325
7.78 -0.0484727
7.79 -0.0438202
7.8 -0.0391127
7.81 -0.0345964
7.82 -0.030557
7.83 -0.0272393
7.84 -0.0248576
7.85 -0.023764
7.86 -0.0240004
7.87 -0.0259134
7.88 -0.0295191
7.89 -0.0348924
7.9 -0.0421978
7.91 -0.0511893
7.92 -0.0619915
7.93 -0.074282
7.94 -0.0878852
7.95 -0.102571
7.96 -0.117932
7.97 -0.133667
7.98 -0.149337
7.99 -0.164553
8 -0.178839
8.01 -0.191915
8.02 -0.203173
8.03 -0.212482
8.04 -0.219455
8.05 -0.223784
8.06 -0.225557
8.07 -0.224258
8.08 -0.220293
8.09 -0.213535
8.1 -0.204138
8.11 -0.192511
8.12 -0.178623
8.13 -0.163141
8.14 -0.1463
8.15 -0.128569
8.16 -0.11039
8.17 -0.0921907
8.18 -0.0743715
8.19 -0.0573426
8.2 -0.0414323
8.21 -0.0268324
8.22 -0.013937
8.23 -0.00264376
8.24 0.00682501
8.25 0.0145882
8.26 0.0207926
8.27 0.0254752
8.28 0.0290514
8.29 0.0316895
8.3 0.0337923
8.31 0.0356857
8.32 0.0377542
8.33 0.0403033
8.34 0.0437367
8.35 0.0482824
8.36 0.0541662
8.37 0.0616772
8.38 0.0707383
8.39 0.0816001
8.4 0.0940506
8.41 0.108023
8.42 0.123388
8.43 0.139781
8.44 0.157023
8.45 0.174672
8.46 0.192395
8.47 0.209766
8.48 0.226467
8.49 0.241968
8.5 0.256067
8.51 0.268376
8.52 0.278577
8.53 0.286659
8.54 0.292099
8.55 0.295179
8.56 0.295689
8.57 0.293678
8.58 0.289419
8.59 0.282733
8.6 0.274159
8.61 0.263746
8.62 0.251812
8.63 0.238688
8.64 0.224533
8.65 0.209754
8.66 0.19455
8.67 0.179195
8.68 0.163891
8.69 0.148854
8.7 0.134193
8.71 0.120067
8.72 0.106531
8.73 0.0936156
8.74 0.0813984
8.75 0.069786
8.76 0.0588196
8.77 0.048405
8.78 0.0384863
8.79 0.0290307
8.8 0.0199249
8.81 0.0111482
8.82 0.00261346
8.83 -0.00572173
8.84 -0.0138903
8.85 -0.0219384
8.86 -0.0298724
8.87 -0.0377177
8.88 -0.0454778
8.89 -0.0531508
8.9 -0.0607435
8.91 -0.0682394
8.92 -0.0756445
8.93 -0.0829488
8.94 -0.0901426
8.95 -0.0972291
8.96 -0.104179
8.97 -0.110995
8.98 -0.117645
8.99 -0.124094
9 -0.130318
9.01 -0.13621
9.02 -0.141742
9.03 -0.14679
9.04 -0.151234
9.05 -0.154996
9.06 -0.157805
9.07 -0.159634
9.08 -0.160221
9.09 -0.159414
9.1 -0.15713
9.11 -0.153
9.12 -0.147138
9.13 -0.139251
9.14 -0.129353
9.15 -0.117485
9.16 -0.103462
9.17 -0.0876304
9.18 -0.0699268
9.19 -0.0506769
9.2 -0.0301436
9.21 -0.00857203
9.22 0.0135677
9.23 0.035913
9.24 0.0579827
9.25 0.0793453
9.26 0.0994158
9.27 0.117902
9.28 0.134107
9.29 0.147814
9.3 0.158627
9.31 0.16605
9.32 0.170212
9.33 0.170466
9.34 0.167151
9.35 0.160132
9.36 0.149376
9.37 0.135393
9.38 0.117957
9.39 0.0978007
9.4 0.0751079
9.41 0.0502743
9.42 0.0238687
9.43 -0.00386321
9.44 -0.0323033
9.45 -0.0611012
9.46 -0.0898259
9.47 -0.118164
9.48 -0.145691
9.49 -0.172264
9.5 -0.19759
9.51 -0.22152
9.52 -0.244036
9.53 -0.264863
9.54 -0.284203
9.55 -0.301899
9.56 -0.31802
9.57 -0.33265
9.58 -0.345623
9.59 -0.357153
9.6 -0.367058
9.61 -0.375364
9.62 -0.382037
9.63 -0.386779
9.64 -0.389688
9.65 -0.390361
9.66 -0.388745
9.67 -0.384669
9.68 -0.377703
9.69 -0.368003
9.7 -0.355045
9.71 -0.338974
9.72 -0.319698
9.73 -0.297013
9.74 -0.271355
9.75 -0.24248
9.76 -0.210952
9.77 -0.177004
9.78 -0.140978
9.79 -0.10352
9.8 -0.065023
9.81 -0.026209
9.82 0.0123434
9.83 0.0499158
9.84 0.086025
9.85 0.119748
9.86 0.150823
9.87 0.178596
9.88 0.202566
9.89 0.222759
9.9 0.238282
9.91 0.249688
9.92 0.256626
9.93 0.259237
9.94 0.258007
9.95 0.252696
9.96 0.244253
9.97 0.232813
9.98 0.218974
9.99 0.203325
10 0.186224
10.01 0.168353
10.02 0.150106
10.03 0.131953
10.04 0.114221
10.05 0.0972952
10.06 0.0812808
10.07 0.0664261
10.08 0.0527333
10.09 0.0401766
10.1 0.0287884
10.11 0.0183214
10.12 0.00873413
10.13 -0.000212968
10.14 -0.00867798
10.15 -0.0168036
10.16 -0.0247511
10.17 -0.0325976
10.18 -0.0403999
10.19 -0.0481506
10.2 -0.0557762
10.21 -0.0631819
10.22 -0.0701534
10.23 -0.0765215
10.24 -0.0820401
10.25 -0.0863932
10.26 -0.0894617
10.27 -0.0907829
10.28 -0.0903557
10.29 -0.0879336
10.3 -0.0833646
10.31 -0.0768141
10.32 -0.0680199
10.33 -0.0574177
10.34 -0.0450825
10.35 -0.0313273
10.36 -0.0165841
10.37 -0.00117073
10.38 0.0143674
10.39 0.0295812
10.4 0.0439618
10.41 0.0571574
10.42 0.0685269
10.43 0.0779864
10.44 0.0850844
10.45 0.0897109
10.46 0.0919217
10.47 0.0914692
10.48 0.0888561
10.49 0.0841181
10.5 0.0777435
10.51 0.0701874
10.52 0.06191
10.53 0.05353
10.54 0.0456305
10.55 0.0387795
10.56 0.0334553
10.57 0.0303282
10.58 0.029511
10.59 0.0316058
10.6 0.0365611
10.61 0.0444351
10.62 0.0553236
10.63 0.0686892
10.64 0.0844897
10.65 0.102009
10.66 0.120757
10.67 0.140075
10.68 0.159265
10.69 0.177514
10.7 0.194193
10.71 0.20859
10.72 0.219943
10.73 0.228052
10.74 0.231931
10.75 0.231808
10.76 0.227281
10.77 0.218266
10.78 0.205258
10.79 0.187899
10.8 0.167189
10.81 0.143338
10.82 0.117001
10.83 0.088941
10.84 0.0596918
10.85 0.0301165
10.86 0.000861468
10.87 -0.027376
10.88 -0.0541245
10.89 -0.0785994
10.9 -0.100713
10.91 -0.119923
10.92 -0.136137
10.93 -0.149402
10.94 -0.159409
10.95 -0.166696
10.96 -0.171168
10.97 -0.173262
10.98 -0.173315
10.99 -0.171509
11 -0.168384
11.01 -0.16411
11.02 -0.159057
11.03 -0.153437
11.04 -0.147388
11.05 -0.141047
11.06 -0.134397
11.07 -0.127414
11.08 -0.119994
11.09 -0.11193
11.1 -0.103113
11.11 -0.0932064
11.12 -0.082105
11.13 -0.069594
11.14 -0.0554485
11.15 -0.0397468
11.16 -0.0222348
11.17 -0.00319073
11.18 0.0173139
11.19 0.0390405
11.2 0.0615748
11.21 0.0845693
11.22 0.107472
11.23 0.129758
11.24 0.150794
11.25 0.170167
11.26 0.18694
11.27 0.200975
11.28 0.211582
11.29 0.21839
11.3 0.221409
11.31 0.219907
11.32 0.214496
11.33 0.204911
11.34 0.191537
11.35 0.1749
11.36 0.155146
11.37 0.133257
11.38 0.109673
11.39 0.0852323
11.4 0.0606292
11.41 0.0366784
11.42 0.0139593
11.43 -0.00673379
11.44 -0.024947
11.45 -0.0403161
11.46 -0.0522269
11.47 -0.0609169
11.48 -0.065936
11.49 -0.0676622
11.5 -0.0662936
11.51 -0.0619926
11.52 -0.0554928
11.53 -0.0470542
11.54 -0.0374459
11.55 -0.0272007
11.56 -0.0169523
11.57 -0.00722271
11.58 0.00134589
11.59 0.00842759
11.6 0.0136363
11.61 0.0166362
11.62 0.0175205
11.63 0.0159494
11.64 0.0123273
11.65 0.00673287
11.66 -0.000539601
11.67 -0.0090097
11.68 -0.0183835
11.69 -0.0280782
11.7 -0.0376693
11.71 -0.0466638
11.72 -0.0547379
11.73 -0.061332
11.74 -0.0663813
11.75 -0.0695545
11.76 -0.0707743
11.77 -0.0701534
11.78 -0.0675384
11.79 -0.0633772
11.8 -0.0577691
11.81 -0.0511038
11.82 -0.0437527
11.83 -0.0360719
11.84 -0.0284742
11.85 -0.0213411
11.86 -0.0149961
11.87 -0.00966533
11.88 -0.00567846
11.89 -0.00298158
11.9 -0.00175962
11.91 -0.00185055
11.92 -0.00310943
11.93 -0.00537928
11.94 -0.00827182
11.95 -0.0115061
11.96 -0.0146663
11.97 -0.0173959
11.98 -0.0192478
11.99 -0.0199998
12 -0.0191824
12.01 -0.0167202
12.02 -0.0124349
12.03 -0.00618844
12.04 0.00177777
12.05 0.0115533
12.06 0.0226818
12.07 0.0349105
12.08 0.0478187
12.09 0.0609238
12.1 0.0736861
12.11 0.0856245
12.12 0.0961917
12.13 0.104837
12.14 0.111332
12.15 0.11489
12.16 0.115654
12.17 0.11321
12.18 0.107496
12.19 0.0987685
12.2 0.0867366
12.21 0.0721102
12.22 0.0549801
12.23 0.0358634
12.24 0.0153028
12.25 -0.00628418
12.26 -0.0282268
12.27 -0.0500089
12.28 -0.0710719
12.29 -0.0909998
12.3 -0.109176
12.31 -0.125485
12.32 -0.139439
12.33 -0.150984
12.34 -0.160089
12.35 -0.166535
12.36 -0.170729
12.37 -0.172569
12.38 -0.17247
12.39 -0.170692
12.4 -0.167453
12.41 -0.163217
12.42 -0.158183
12.43 -0.152721
12.44 -0.147059
12.45 -0.141409
12.46 -0.1359
12.47 -0.130635
12.48 -0.1256
12.49 -0.12075
12.5 -0.115966
12.51 -0.111096
12.52 -0.105905
12.53 -0.100205
12.54 -0.0937504
12.55 -0.0862807
12.56 -0.0777091
12.57 -0.0676765
12.58 -0.0562729
12.59 -0.0433551
12.6 -0.0289428
12.61 -0.0132392
12.62 0.00377418
12.63 0.0216731
12.64 0.040247
12.65 0.0591084
12.66 0.0778932
12.67 0.0961193
12.68 0.11346
12.69 0.129426
12.7 0.143659
12.71 0.155941
12.72 0.16572
12.73 0.173132
12.74 0.177801
12.75 0.179822
12.76 0.179321
12.77 0.176194
12.78 0.170977
12.79 0.163728
12.8 0.154949
12.81 0.145024
12.82 0.13434
12.83 0.123401
12.84 0.112637
12.85 0.102468
12.86 0.0932464
12.87 0.0854042
