# xPDFsuite Configuration #
[PDF]
wavelength = 0.1
dataformat = QA
inputfile = B3_Bronze-3nm_ss_040.chi
backgroundfile = B3_Li-bkg_DD155_two_ss_att.chi
mode = xray
bgscale = 0.985
composition = Ti O2
outputtype = gr
qmaxinst = 23.5
qmin = 0.1
qmax = 23.0
rmax = 40.0
rmin = 0.0
rstep = 0.01
rpoly = 0.9

[Misc]
inputdir = E:/Beamtime/PETRA-III_September-2019/BeamData/processed/Run1/B3/integration_20210218/chi/chi_w_sigmas/chi_scaled
savedir = E:/Beamtime/PETRA-III_September-2019/BeamData/processed/Run1/B3/integration_20210218
backgroundfilefull = E:/Beamtime/PETRA-III_September-2019/BeamData/processed/Run1/B3/integration_20210218/chi/chi_w_sigmas/chi_scaled/B3_Li-bkg_DD155_two_ss_att.chi

#### start data
#S 1
#L r($\AA$)  G($\AA^{-2}$)
0 0
0.01 0.00163743
0.02 0.00318548
0.03 0.00455385
0.04 0.00566214
0.05 0.00647238
0.06 0.00688906
0.07 0.0069434
0.08 0.00659717
0.09 0.00588084
0.1 0.0048476
0.11 0.00352198
0.12 0.0020126
0.13 0.000384212
0.14 -0.00126166
0.15 -0.0028407
0.16 -0.00424395
0.17 -0.00541609
0.18 -0.00625922
0.19 -0.00673699
0.2 -0.00682342
0.21 -0.00646727
0.22 -0.00572792
0.23 -0.00458734
0.24 -0.00312673
0.25 -0.00140654
0.26 0.000500599
0.27 0.00248798
0.28 0.0044587
0.29 0.00630668
0.3 0.00793241
0.31 0.00921157
0.32 0.0100939
0.33 0.0104294
0.34 0.0102018
0.35 0.00933246
0.36 0.00774659
0.37 0.00548292
0.38 0.00241644
0.39 -0.00135908
0.4 -0.00587533
0.41 -0.0111195
0.42 -0.0169938
0.43 -0.0235401
0.44 -0.0305965
0.45 -0.0381179
0.46 -0.0459871
0.47 -0.0540628
0.48 -0.0622009
0.49 -0.0702152
0.5 -0.0778924
0.51 -0.0849841
0.52 -0.0912914
0.53 -0.096375
0.54 -0.100104
0.55 -0.102019
0.56 -0.101831
0.57 -0.0993357
0.58 -0.0938991
0.59 -0.0856321
0.6 -0.0739784
0.61 -0.0589144
0.62 -0.0404279
0.63 -0.0181438
0.64 0.00740121
0.65 0.036407
0.66 0.068329
0.67 0.10276
0.68 0.139304
0.69 0.177115
0.7 0.215566
0.71 0.253744
0.72 0.290822
0.73 0.325691
0.74 0.357729
0.75 0.38556
0.76 0.40872
0.77 0.426371
0.78 0.43755
0.79 0.442461
0.8 0.439839
0.81 0.430426
0.82 0.414004
0.83 0.39072
0.84 0.361682
0.85 0.326801
0.86 0.287739
0.87 0.24523
0.88 0.200518
0.89 0.154892
0.9 0.109657
0.91 0.0659861
0.92 0.0251289
0.93 -0.0118064
0.94 -0.0443215
0.95 -0.0709902
0.96 -0.0922408
0.97 -0.107423
0.98 -0.116835
0.99 -0.121161
1 -0.120522
1.01 -0.116489
1.02 -0.109858
1.03 -0.102131
1.04 -0.0946258
1.05 -0.0890276
1.06 -0.0864597
1.07 -0.0886372
1.08 -0.0965313
1.09 -0.110901
1.1 -0.13311
1.11 -0.162537
1.12 -0.200045
1.13 -0.244614
1.14 -0.295499
1.15 -0.351855
1.16 -0.411652
1.17 -0.473399
1.18 -0.534784
1.19 -0.593722
1.2 -0.647475
1.21 -0.694452
1.22 -0.731258
1.23 -0.756865
1.24 -0.769228
1.25 -0.766267
1.26 -0.748584
1.27 -0.713391
1.28 -0.662813
1.29 -0.596567
1.3 -0.515546
1.31 -0.422527
1.32 -0.317978
1.33 -0.205981
1.34 -0.088745
1.35 0.030342
1.36 0.148237
1.37 0.260929
1.38 0.365998
1.39 0.45982
1.4 0.539586
1.41 0.604087
1.42 0.648971
1.43 0.675664
1.44 0.681636
1.45 0.667386
1.46 0.6343
1.47 0.581279
1.48 0.512532
1.49 0.428532
1.5 0.332728
1.51 0.228102
1.52 0.117278
1.53 0.00410116
1.54 -0.108354
1.55 -0.216832
1.56 -0.3187
1.57 -0.410419
1.58 -0.491079
1.59 -0.557384
1.6 -0.609125
1.61 -0.6455
1.62 -0.665181
1.63 -0.670234
1.64 -0.659448
1.65 -0.635524
1.66 -0.599563
1.67 -0.552976
1.68 -0.498674
1.69 -0.437853
1.7 -0.373405
1.71 -0.307126
1.72 -0.241094
1.73 -0.176841
1.74 -0.116283
1.75 -0.060112
1.76 -0.00937371
1.77 0.0353249
1.78 0.0743686
1.79 0.107008
1.8 0.134576
1.81 0.157308
1.82 0.176125
1.83 0.192155
1.84 0.206105
1.85 0.219223
1.86 0.232305
1.87 0.246168
1.88 0.26129
1.89 0.278263
1.9 0.296956
1.91 0.317417
1.92 0.339182
1.93 0.361653
1.94 0.383985
1.95 0.405254
1.96 0.424208
1.97 0.439718
1.98 0.450764
1.99 0.455585
2 0.453921
2.01 0.444008
2.02 0.425642
2.03 0.398384
2.04 0.36123
2.05 0.315315
2.06 0.259794
2.07 0.196077
2.08 0.12483
2.09 0.0467979
2.1 -0.036111
2.11 -0.122991
2.12 -0.211801
2.13 -0.301023
2.14 -0.388751
2.15 -0.473569
2.16 -0.553183
2.17 -0.626597
2.18 -0.692129
2.19 -0.748158
2.2 -0.794554
2.21 -0.828761
2.22 -0.8517
2.23 -0.862158
2.24 -0.859791
2.25 -0.845656
2.26 -0.818012
2.27 -0.779247
2.28 -0.728969
2.29 -0.668144
2.3 -0.598319
2.31 -0.519418
2.32 -0.433901
2.33 -0.342439
2.34 -0.246728
2.35 -0.148336
2.36 -0.0487092
2.37 0.0504393
2.38 0.147421
2.39 0.240601
2.4 0.328654
2.41 0.409259
2.42 0.481953
2.43 0.544422
2.44 0.59599
2.45 0.635867
2.46 0.662034
2.47 0.675529
2.48 0.67438
2.49 0.65961
2.5 0.631378
2.51 0.589296
2.52 0.535658
2.53 0.470109
2.54 0.395193
2.55 0.312273
2.56 0.223035
2.57 0.130034
2.58 0.0351444
2.59 -0.0591011
2.6 -0.150524
2.61 -0.236547
2.62 -0.315774
2.63 -0.385009
2.64 -0.44379
2.65 -0.490218
2.66 -0.522956
2.67 -0.542638
2.68 -0.54688
2.69 -0.538004
2.7 -0.515591
2.71 -0.480728
2.72 -0.43557
2.73 -0.380392
2.74 -0.318521
2.75 -0.251394
2.76 -0.181487
2.77 -0.110974
2.78 -0.042282
2.79 0.022839
2.8 0.0821852
2.81 0.134251
2.82 0.178205
2.83 0.212031
2.84 0.23655
2.85 0.250619
2.86 0.255055
2.87 0.250696
2.88 0.237765
2.89 0.218515
2.9 0.193739
2.91 0.165536
2.92 0.135521
2.93 0.105499
2.94 0.07702
2.95 0.0518846
2.96 0.0311672
2.97 0.0158669
2.98 0.00714794
2.99 0.00466121
3 0.00931584
3.01 0.0200955
3.02 0.0365759
3.03 0.0579853
3.04 0.0827552
3.05 0.109864
3.06 0.137518
3.07 0.164264
3.08 0.188358
3.09 0.208718
3.1 0.223256
3.11 0.231594
3.12 0.2325
3.13 0.225256
3.14 0.210309
3.15 0.186432
3.16 0.155272
3.17 0.116855
3.18 0.0722318
3.19 0.0228518
3.2 -0.0305055
3.21 -0.085899
3.22 -0.142097
3.23 -0.197542
3.24 -0.251063
3.25 -0.301022
3.26 -0.346915
3.27 -0.387524
3.28 -0.422489
3.29 -0.451769
3.3 -0.474714
3.31 -0.49237
3.32 -0.504623
3.33 -0.512491
3.34 -0.516803
3.35 -0.518259
3.36 -0.518094
3.37 -0.51708
3.38 -0.516169
3.39 -0.516022
3.4 -0.517313
3.41 -0.520188
3.42 -0.524962
3.43 -0.531299
3.44 -0.538848
3.45 -0.546954
3.46 -0.554768
3.47 -0.561118
3.48 -0.564961
3.49 -0.56504
3.5 -0.559808
3.51 -0.548679
3.52 -0.529521
3.53 -0.502342
3.54 -0.466023
3.55 -0.419861
3.56 -0.364585
3.57 -0.298901
3.58 -0.224697
3.59 -0.142132
3.6 -0.0523987
3.61 0.04269
3.62 0.14212
3.63 0.243455
3.64 0.344962
3.65 0.44444
3.66 0.540198
3.67 0.62943
3.68 0.711237
3.69 0.783234
3.7 0.844179
3.71 0.893538
3.72 0.928883
3.73 0.951541
3.74 0.959927
3.75 0.954841
3.76 0.937068
3.77 0.906085
3.78 0.864449
3.79 0.812118
3.8 0.751177
3.81 0.68306
3.82 0.608866
3.83 0.530744
3.84 0.449789
3.85 0.367727
3.86 0.285794
3.87 0.205366
3.88 0.127273
3.89 0.0528237
3.9 -0.0175446
3.91 -0.0831681
3.92 -0.143292
3.93 -0.198169
3.94 -0.24678
3.95 -0.289674
3.96 -0.326537
3.97 -0.357145
3.98 -0.382084
3.99 -0.400484
4 -0.413174
4.01 -0.419806
4.02 -0.420289
4.03 -0.415146
4.04 -0.403444
4.05 -0.386115
4.06 -0.362742
4.07 -0.333438
4.08 -0.298768
4.09 -0.258156
4.1 -0.212763
4.11 -0.162557
4.12 -0.108216
4.13 -0.0505557
4.14 0.0100015
4.15 0.0722251
4.16 0.135335
4.17 0.198205
4.18 0.259881
4.19 0.318987
4.2 0.374828
4.21 0.425989
4.22 0.471716
4.23 0.511357
4.24 0.543508
4.25 0.568551
4.26 0.585221
4.27 0.593893
4.28 0.5946
4.29 0.586919
4.3 0.572145
4.31 0.549917
4.32 0.521579
4.33 0.487796
4.34 0.449243
4.35 0.407312
4.36 0.362601
4.37 0.3164
4.38 0.269552
4.39 0.223013
4.4 0.177475
4.41 0.133853
4.42 0.0924919
4.43 0.0539109
4.44 0.0185037
4.45 -0.013872
4.46 -0.0426891
4.47 -0.0684887
4.48 -0.0912207
4.49 -0.111122
4.5 -0.128682
4.51 -0.143867
4.52 -0.157339
4.53 -0.169235
4.54 -0.179854
4.55 -0.189472
4.56 -0.198111
4.57 -0.205982
4.58 -0.213015
4.59 -0.219162
4.6 -0.22435
4.61 -0.228246
4.62 -0.230805
4.63 -0.23163
4.64 -0.230522
4.65 -0.227316
4.66 -0.221528
4.67 -0.213306
4.68 -0.202235
4.69 -0.188418
4.7 -0.171903
4.71 -0.152542
4.72 -0.130819
4.73 -0.106681
4.74 -0.0806175
4.75 -0.052946
4.76 -0.0239888
4.77 0.00572578
4.78 0.0358413
4.79 0.0658843
4.8 0.0954775
4.81 0.124182
4.82 0.151791
4.83 0.177847
4.84 0.202298
4.85 0.224943
4.86 0.245619
4.87 0.264491
4.88 0.28131
4.89 0.2964
4.9 0.309765
4.91 0.321518
4.92 0.331931
4.93 0.340949
4.94 0.348895
4.95 0.355796
4.96 0.361739
4.97 0.366841
4.98 0.370978
4.99 0.374256
5 0.376528
5.01 0.3777
5.02 0.377719
5.03 0.37625
5.04 0.373342
5.05 0.368685
5.06 0.362178
5.07 0.35378
5.08 0.343146
5.09 0.330502
5.1 0.315602
5.11 0.298583
5.12 0.279564
5.13 0.258476
5.14 0.235725
5.15 0.211321
5.16 0.185619
5.17 0.158868
5.18 0.131291
5.19 0.103246
5.2 0.074966
5.21 0.0467472
5.22 0.0188181
5.23 -0.00855574
5.24 -0.0352599
5.25 -0.0610341
5.26 -0.0858476
5.27 -0.109595
5.28 -0.132171
5.29 -0.15367
5.3 -0.173935
5.31 -0.193123
5.32 -0.211212
5.33 -0.228207
5.34 -0.244236
5.35 -0.259174
5.36 -0.273171
5.37 -0.286161
5.38 -0.298108
5.39 -0.309068
5.4 -0.318811
5.41 -0.327445
5.42 -0.334802
5.43 -0.340804
5.44 -0.345474
5.45 -0.348533
5.46 -0.350153
5.47 -0.350164
5.48 -0.348596
5.49 -0.345552
5.5 -0.340897
5.51 -0.334934
5.52 -0.327643
5.53 -0.319241
5.54 -0.309929
5.55 -0.299835
5.56 -0.289264
5.57 -0.278399
5.58 -0.267499
5.59 -0.256775
5.6 -0.246491
5.61 -0.236783
5.62 -0.227913
5.63 -0.219981
5.64 -0.213102
5.65 -0.207468
5.66 -0.203002
5.67 -0.199905
5.68 -0.198071
5.69 -0.197518
5.7 -0.198294
5.71 -0.200226
5.72 -0.20343
5.73 -0.207723
5.74 -0.213094
5.75 -0.219526
5.76 -0.226868
5.77 -0.2352
5.78 -0.244348
5.79 -0.2543
5.8 -0.264998
5.81 -0.2763
5.82 -0.288191
5.83 -0.300464
5.84 -0.313
5.85 -0.325595
5.86 -0.338047
5.87 -0.350035
5.88 -0.361333
5.89 -0.371565
5.9 -0.380362
5.91 -0.387484
5.92 -0.392256
5.93 -0.394636
5.94 -0.394037
5.95 -0.390202
5.96 -0.383034
5.97 -0.371877
5.98 -0.357124
5.99 -0.338341
6 -0.315776
6.01 -0.289684
6.02 -0.260003
6.03 -0.227536
6.04 -0.192454
6.05 -0.15553
6.06 -0.117387
6.07 -0.0787344
6.08 -0.0403476
6.09 -0.00308492
6.1 0.0323356
6.11 0.0652177
6.12 0.0946243
6.13 0.120384
6.14 0.141476
6.15 0.157978
6.16 0.169585
6.17 0.176
6.18 0.177856
6.19 0.174797
6.2 0.167816
6.21 0.157304
6.22 0.143949
6.23 0.12877
6.24 0.112511
6.25 0.0962824
6.26 0.0810253
6.27 0.0678211
6.28 0.0573157
6.29 0.0509188
6.3 0.0487744
6.31 0.0517865
6.32 0.0603984
6.33 0.0744176
6.34 0.0947473
6.35 0.120344
6.36 0.151366
6.37 0.187135
6.38 0.226757
6.39 0.269787
6.4 0.314823
6.41 0.361007
6.42 0.407096
6.43 0.452053
6.44 0.494446
6.45 0.533556
6.46 0.567978
6.47 0.596999
6.48 0.620032
6.49 0.635787
6.5 0.644719
6.51 0.645716
6.52 0.639238
6.53 0.625408
6.54 0.603946
6.55 0.576119
6.56 0.5417
6.57 0.50197
6.58 0.457589
6.59 0.409238
6.6 0.358169
6.61 0.304997
6.62 0.250865
6.63 0.19656
6.64 0.142985
6.65 0.0907452
6.66 0.0407702
6.67 -0.0066385
6.68 -0.0509237
6.69 -0.0916246
6.7 -0.128849
6.71 -0.16188
6.72 -0.191219
6.73 -0.216642
6.74 -0.238228
6.75 -0.256434
6.76 -0.27092
6.77 -0.282455
6.78 -0.291012
6.79 -0.296889
6.8 -0.300483
6.81 -0.301719
6.82 -0.301132
6.83 -0.298732
6.84 -0.294748
6.85 -0.289388
6.86 -0.282618
6.87 -0.27473
6.88 -0.265702
6.89 -0.255679
6.9 -0.244776
6.91 -0.233002
6.92 -0.220566
6.93 -0.207508
6.94 -0.194004
6.95 -0.180193
6.96 -0.16623
6.97 -0.152299
6.98 -0.138598
6.99 -0.12531
7 -0.112611
7.01 -0.100754
7.02 -0.089803
7.03 -0.0800458
7.04 -0.0715021
7.05 -0.0642836
7.06 -0.0585227
7.07 -0.0540817
7.08 -0.0511172
7.09 -0.0493923
7.1 -0.048841
7.11 -0.0493223
7.12 -0.0505541
7.13 -0.0523862
7.14 -0.0544785
7.15 -0.0565764
7.16 -0.0583564
7.17 -0.0595818
7.18 -0.0598324
7.19 -0.0589715
7.2 -0.0566775
7.21 -0.0527179
7.22 -0.0470661
7.23 -0.0393054
7.24 -0.0296649
7.25 -0.0179517
7.26 -0.00423798
7.27 0.011277
7.28 0.0286818
7.29 0.0475296
7.3 0.067728
7.31 0.0889312
7.32 0.110813
7.33 0.133067
7.34 0.155299
7.35 0.177134
7.36 0.198197
7.37 0.218177
7.38 0.236565
7.39 0.253247
7.4 0.267707
7.41 0.279814
7.42 0.289384
7.43 0.296004
7.44 0.29989
7.45 0.300605
7.46 0.298379
7.47 0.293204
7.48 0.284977
7.49 0.274139
7.5 0.260515
7.51 0.2446
7.52 0.226569
7.53 0.206647
7.54 0.185316
7.55 0.162747
7.56 0.139448
7.57 0.115734
7.58 0.0920082
7.59 0.0686059
7.6 0.0459845
7.61 0.0243869
7.62 0.00418215
7.63 -0.0143014
7.64 -0.0309881
7.65 -0.0453409
7.66 -0.0575379
7.67 -0.067294
7.68 -0.0745672
7.69 -0.0795316
7.7 -0.081902
7.71 -0.0821544
7.72 -0.080249
7.73 -0.0764689
7.74 -0.0711469
7.75 -0.064422
7.76 -0.0568025
7.77 -0.0485514
7.78 -0.0400906
7.79 -0.0317693
7.8 -0.0240297
7.81 -0.0171417
7.82 -0.0115478
7.83 -0.00749605
7.84 -0.00519722
7.85 -0.00505762
7.86 -0.00696658
7.87 -0.0112768
7.88 -0.017844
7.89 -0.0266307
7.9 -0.0376847
7.91 -0.0505918
7.92 -0.0653477
7.93 -0.0814864
7.94 -0.0987136
7.95 -0.116663
7.96 -0.134879
7.97 -0.152926
7.98 -0.17037
7.99 -0.18678
8 -0.201649
8.01 -0.214773
8.02 -0.225498
8.03 -0.23381
8.04 -0.239354
8.05 -0.241886
8.06 -0.241589
8.07 -0.237985
8.08 -0.231579
8.09 -0.222297
8.1 -0.210353
8.11 -0.196204
8.12 -0.179868
8.13 -0.162039
8.14 -0.142982
8.15 -0.12319
8.16 -0.103109
8.17 -0.0832047
8.18 -0.0638636
8.19 -0.0455269
8.2 -0.0285325
8.21 -0.0130771
8.22 0.000394803
8.23 0.0120016
8.24 0.0214701
8.25 0.0289113
8.26 0.0344642
8.27 0.0381157
8.28 0.0403223
8.29 0.041216
8.3 0.04124
8.31 0.0407512
8.32 0.0401585
8.33 0.0398566
8.34 0.0403049
8.35 0.0418359
8.36 0.0447692
8.37 0.0495223
8.38 0.0561036
8.39 0.0649261
8.4 0.0758499
8.41 0.0889137
8.42 0.104114
8.43 0.121069
8.44 0.139747
8.45 0.159619
8.46 0.180367
8.47 0.201527
8.48 0.22263
8.49 0.243111
8.5 0.262545
8.51 0.280405
8.52 0.296166
8.53 0.309642
8.54 0.320048
8.55 0.327533
8.56 0.331663
8.57 0.332317
8.58 0.329719
8.59 0.323426
8.6 0.314103
8.61 0.301688
8.62 0.286565
8.63 0.26921
8.64 0.249792
8.65 0.229022
8.66 0.207233
8.67 0.18497
8.68 0.162674
8.69 0.140848
8.7 0.119819
8.71 0.100041
8.72 0.0817606
8.73 0.0651554
8.74 0.0505685
8.75 0.0378343
8.76 0.0271878
8.77 0.0184176
8.78 0.0113964
8.79 0.00605032
8.8 0.00196711
8.81 -0.000982249
8.82 -0.00321009
8.83 -0.00500242
8.84 -0.00669223
8.85 -0.00857618
8.86 -0.0109953
8.87 -0.0141577
8.88 -0.0182871
8.89 -0.0236085
8.9 -0.0301048
8.91 -0.0380105
8.92 -0.0471528
8.93 -0.0575299
8.94 -0.069035
8.95 -0.0814075
8.96 -0.0945321
8.97 -0.108046
8.98 -0.121693
8.99 -0.135127
9 -0.148074
9.01 -0.160065
9.02 -0.170916
9.03 -0.180226
9.04 -0.187699
9.05 -0.193228
9.06 -0.196277
9.07 -0.197022
9.08 -0.195119
9.09 -0.190563
9.1 -0.183471
9.11 -0.173561
9.12 -0.161298
9.13 -0.146577
9.14 -0.129714
9.15 -0.111
9.16 -0.0905546
9.17 -0.0689001
9.18 -0.0462555
9.19 -0.0230731
9.2 0.00028426
9.21 0.0233837
9.22 0.0458829
9.23 0.0672975
9.24 0.0873188
9.25 0.105618
9.26 0.121708
9.27 0.135566
9.28 0.146625
9.29 0.154932
9.3 0.16029
9.31 0.162427
9.32 0.161633
9.33 0.15749
9.34 0.150417
9.35 0.140401
9.36 0.127513
9.37 0.112203
9.38 0.0943629
9.39 0.0745684
9.4 0.0529794
9.41 0.0298972
9.42 0.00572984
9.43 -0.0193446
9.44 -0.0448992
9.45 -0.0706935
9.46 -0.0964329
9.47 -0.121903
9.48 -0.146808
9.49 -0.171044
9.5 -0.194397
9.51 -0.216741
9.52 -0.238047
9.53 -0.258078
9.54 -0.276953
9.55 -0.29451
9.56 -0.310753
9.57 -0.325706
9.58 -0.339169
9.59 -0.351285
9.6 -0.361839
9.61 -0.370821
9.62 -0.378176
9.63 -0.383596
9.64 -0.38718
9.65 -0.388538
9.66 -0.387634
9.67 -0.384321
9.68 -0.378198
9.69 -0.369432
9.7 -0.357528
9.71 -0.342627
9.72 -0.324633
9.73 -0.303325
9.74 -0.279098
9.75 -0.251662
9.76 -0.221518
9.77 -0.188826
9.78 -0.153836
9.79 -0.117143
9.8 -0.0790083
9.81 -0.0401287
9.82 -0.00100763
9.83 0.0376958
9.84 0.0754626
9.85 0.111444
9.86 0.145265
9.87 0.176239
9.88 0.20377
9.89 0.227747
9.9 0.247151
9.91 0.262367
9.92 0.272874
9.93 0.278631
9.94 0.280005
9.95 0.276505
9.96 0.269064
9.97 0.257647
9.98 0.242808
9.99 0.225175
10 0.205004
10.01 0.183191
10.02 0.160159
10.03 0.136581
10.04 0.112985
10.05 0.089961
10.06 0.0678801
10.07 0.047255
10.08 0.0283392
10.09 0.0113161
10.1 -0.00346594
10.11 -0.0162126
10.12 -0.026686
10.13 -0.0351409
10.14 -0.0417138
10.15 -0.046483
10.16 -0.0498645
10.17 -0.0519413
10.18 -0.0530937
10.19 -0.0535357
10.2 -0.0534798
10.21 -0.0531557
10.22 -0.0526921
10.23 -0.0522112
10.24 -0.0517644
10.25 -0.0513602
10.26 -0.0509583
10.27 -0.0504686
10.28 -0.049786
10.29 -0.04877
10.3 -0.0472499
10.31 -0.045138
10.32 -0.0421838
10.33 -0.0383882
10.34 -0.0336143
10.35 -0.0278169
10.36 -0.0210848
10.37 -0.0133326
10.38 -0.00481642
10.39 0.00437961
10.4 0.0140309
10.41 0.0239011
10.42 0.0337279
10.43 0.0432574
10.44 0.0521979
10.45 0.0603005
10.46 0.0674059
10.47 0.0731864
10.48 0.0776951
10.49 0.0807291
10.5 0.0823601
10.51 0.0826933
10.52 0.0817506
10.53 0.0798835
10.54 0.0772517
10.55 0.0742257
10.56 0.0711197
10.57 0.0683283
10.58 0.0661475
10.59 0.0650114
10.6 0.0651521
10.61 0.0668099
10.62 0.0702957
10.63 0.075509
10.64 0.0827076
10.65 0.0916268
10.66 0.102152
10.67 0.114073
10.68 0.126933
10.69 0.14041
10.7 0.153946
10.71 0.167051
10.72 0.179106
10.73 0.189716
10.74 0.198058
10.75 0.203925
10.76 0.206755
10.77 0.206122
10.78 0.202093
10.79 0.193935
10.8 0.182195
10.81 0.166662
10.82 0.147565
10.83 0.125441
10.84 0.100291
10.85 0.0730397
10.86 0.0440506
10.87 0.0140359
10.88 -0.0163559
10.89 -0.0464088
10.9 -0.0755329
10.91 -0.103011
10.92 -0.128294
10.93 -0.151018
10.94 -0.170409
10.95 -0.186588
10.96 -0.198972
10.97 -0.207641
10.98 -0.212666
10.99 -0.213787
11 -0.211639
11.01 -0.206084
11.02 -0.197687
11.03 -0.186791
11.04 -0.173638
11.05 -0.158859
11.06 -0.14267
11.07 -0.125589
11.08 -0.107933
11.09 -0.0900217
11.1 -0.07213
11.11 -0.0544979
11.12 -0.0372687
11.13 -0.0205629
11.14 -0.00447978
11.15 0.0110147
11.16 0.0258332
11.17 0.0400767
11.18 0.0537471
11.19 0.0668662
11.2 0.0795052
11.21 0.0915934
11.22 0.103183
11.23 0.114192
11.24 0.124528
11.25 0.134147
11.26 0.142765
11.27 0.150366
11.28 0.156685
11.29 0.161531
11.3 0.164839
11.31 0.166185
11.32 0.165703
11.33 0.163107
11.34 0.158389
11.35 0.151646
11.36 0.142676
11.37 0.131883
11.38 0.119249
11.39 0.105104
11.4 0.0897619
11.41 0.0734734
11.42 0.056712
11.43 0.0398303
11.44 0.0232634
11.45 0.00737311
11.46 -0.00734788
11.47 -0.0207118
11.48 -0.0322332
11.49 -0.0418016
11.5 -0.0492531
11.51 -0.0543267
11.52 -0.057268
11.53 -0.0578539
11.54 -0.0564423
11.55 -0.0531851
11.56 -0.0482846
11.57 -0.0422032
11.58 -0.0351622
11.59 -0.0276531
11.6 -0.0200227
11.61 -0.0126885
11.62 -0.00594579
11.63 -0.000245123
11.64 0.00426733
11.65 0.00732083
11.66 0.00872779
11.67 0.0085634
11.68 0.00656544
11.69 0.00305254
11.7 -0.0019645
11.71 -0.00827771
11.72 -0.0155748
11.73 -0.0236911
11.74 -0.0322084
11.75 -0.040853
11.76 -0.0492783
11.77 -0.0572232
11.78 -0.0642968
11.79 -0.0703786
11.8 -0.075166
11.81 -0.0785375
11.82 -0.080462
11.83 -0.0807112
11.84 -0.079509
11.85 -0.0767529
11.86 -0.0726293
11.87 -0.0673003
11.88 -0.0608362
11.89 -0.0535561
11.9 -0.0455713
11.91 -0.0371424
11.92 -0.0284537
11.93 -0.0196899
11.94 -0.0110108
11.95 -0.00257173
11.96 0.00553583
11.97 0.013237
11.98 0.0204517
11.99 0.0272132
12 0.0334614
12.01 0.0392686
12.02 0.0446544
12.03 0.0496444
12.04 0.054315
12.05 0.0586568
12.06 0.0627293
12.07 0.0665251
12.08 0.0700205
12.09 0.0732105
12.1 0.0759803
12.11 0.0783025
12.12 0.080052
12.13 0.0810962
12.14 0.0813836
12.15 0.0806387
12.16 0.0788841
12.17 0.0759211
12.18 0.0716485
12.19 0.0660877
12.2 0.0589858
12.21 0.0505443
12.22 0.0406555
12.23 0.0294177
12.24 0.0169901
12.25 0.00337085
12.26 -0.0111154
12.27 -0.0263575
12.28 -0.0420831
12.29 -0.058053
12.3 -0.0740021
12.31 -0.0896845
12.32 -0.104806
12.33 -0.119141
12.34 -0.132494
12.35 -0.144543
12.36 -0.155281
12.37 -0.164396
12.38 -0.171894
12.39 -0.177713
12.4 -0.181685
12.41 -0.184015
12.42 -0.184516
12.43 -0.183406
12.44 -0.180731
12.45 -0.176506
12.46 -0.170991
12.47 -0.164126
12.48 -0.156167
12.49 -0.147183
12.5 -0.137252
12.51 -0.126555
12.52 -0.115075
12.53 -0.102987
12.54 -0.0903229
12.55 -0.0771399
12.56 -0.0635349
12.57 -0.0495014
12.58 -0.0351516
12.59 -0.0205183
12.6 -0.00567217
12.61 0.0093031
12.62 0.0243275
12.63 0.0392936
12.64 0.0540839
12.65 0.0685604
12.66 0.0826163
12.67 0.0960171
12.68 0.1087
12.69 0.120435
12.7 0.131084
12.71 0.140566
12.72 0.148584
12.73 0.155224
12.74 0.160249
12.75 0.163677
12.76 0.165538
12.77 0.165685
12.78 0.164386
12.79 0.161568
12.8 0.157469
12.81 0.152256
12.82 0.146059
12.83 0.139203
12.84 0.131858
12.85 0.124327
12.86 0.116843
12.87 0.109688
12.88 0.103043
