# xPDFsuite Configuration #
[PDF]
wavelength = 0.1
dataformat = QA
inputfile = B3_Bronze-3nm_ss_005.chi
backgroundfile = B3_Li-bkg_DD155_two_ss_att.chi
mode = xray
bgscale = 0.985
composition = Ti O2
outputtype = gr
qmaxinst = 23.5
qmin = 0.1
qmax = 23.0
rmax = 40.0
rmin = 0.0
rstep = 0.01
rpoly = 0.9

[Misc]
inputdir = E:/Beamtime/PETRA-III_September-2019/BeamData/processed/Run1/B3/integration_20210218/chi/chi_w_sigmas/chi_scaled
savedir = E:/Beamtime/PETRA-III_September-2019/BeamData/processed/Run1/B3/integration_20210218
backgroundfilefull = E:/Beamtime/PETRA-III_September-2019/BeamData/processed/Run1/B3/integration_20210218/chi/chi_w_sigmas/chi_scaled/B3_Li-bkg_DD155_two_ss_att.chi

#### start data
#S 1
#L r($\AA$)  G($\AA^{-2}$)
0 0
0.01 0.0026231
0.02 0.00510655
0.03 0.00730903
0.04 0.00910438
0.05 0.0104324
0.06 0.0111418
0.07 0.0112799
0.08 0.0107838
0.09 0.00969815
0.1 0.00810372
0.11 0.00603347
0.12 0.0036568
0.13 0.00107032
0.14 -0.00156821
0.15 -0.00412718
0.16 -0.00643912
0.17 -0.0084133
0.18 -0.00989765
0.19 -0.0108312
0.2 -0.0111701
0.21 -0.0108316
0.22 -0.00990314
0.23 -0.00835323
0.24 -0.00630383
0.25 -0.00384524
0.26 -0.00108521
0.27 0.00181371
0.28 0.0047093
0.29 0.00744276
0.3 0.00986974
0.31 0.0118147
0.32 0.0132102
0.33 0.0138582
0.34 0.0137518
0.35 0.0128058
0.36 0.0109539
0.37 0.00827717
0.38 0.00467114
0.39 0.000294166
0.4 -0.00483559
0.41 -0.0106386
0.42 -0.0169661
0.43 -0.0237739
0.44 -0.0308719
0.45 -0.0381543
0.46 -0.045467
0.47 -0.0526759
0.48 -0.059584
0.49 -0.0660729
0.5 -0.0719351
0.51 -0.0769832
0.52 -0.0810931
0.53 -0.0838993
0.54 -0.085373
0.55 -0.0851609
0.56 -0.0830813
0.57 -0.0790161
0.58 -0.0724856
0.59 -0.0636258
0.6 -0.0520141
0.61 -0.037658
0.62 -0.0205633
0.63 -0.000442411
0.64 0.022271
0.65 0.0477316
0.66 0.075503
0.67 0.105257
0.68 0.136666
0.69 0.169045
0.7 0.201866
0.71 0.234373
0.72 0.265866
0.73 0.295392
0.74 0.32242
0.75 0.345743
0.76 0.364948
0.77 0.379282
0.78 0.387871
0.79 0.390875
0.8 0.387132
0.81 0.377275
0.82 0.361076
0.83 0.338636
0.84 0.310934
0.85 0.27786
0.86 0.240918
0.87 0.200769
0.88 0.15856
0.89 0.115489
0.9 0.0727882
0.91 0.031576
0.92 -0.00693861
0.93 -0.0416644
0.94 -0.0720893
0.95 -0.0967748
0.96 -0.116088
0.97 -0.129322
0.98 -0.13669
0.99 -0.138807
1 -0.135665
1.01 -0.128792
1.02 -0.118864
1.03 -0.107326
1.04 -0.0954681
1.05 -0.0848757
1.06 -0.0767464
1.07 -0.0727502
1.08 -0.0739425
1.09 -0.08116
1.1 -0.09584
1.11 -0.117523
1.12 -0.147198
1.13 -0.18402
1.14 -0.227401
1.15 -0.276711
1.16 -0.330029
1.17 -0.386117
1.18 -0.442742
1.19 -0.497954
1.2 -0.54919
1.21 -0.594801
1.22 -0.631603
1.23 -0.658434
1.24 -0.673268
1.25 -0.674014
1.26 -0.661073
1.27 -0.631689
1.28 -0.587723
1.29 -0.528792
1.3 -0.455624
1.31 -0.370801
1.32 -0.274657
1.33 -0.171088
1.34 -0.0621675
1.35 0.0488569
1.36 0.159016
1.37 0.264452
1.38 0.362729
1.39 0.450301
1.4 0.524361
1.41 0.583655
1.42 0.62387
1.43 0.646313
1.44 0.648444
1.45 0.630685
1.46 0.594353
1.47 0.538318
1.48 0.466716
1.49 0.379999
1.5 0.281594
1.51 0.174473
1.52 0.06129
1.53 -0.0540965
1.54 -0.168547
1.55 -0.278758
1.56 -0.382036
1.57 -0.474735
1.58 -0.555925
1.59 -0.622185
1.6 -0.67329
1.61 -0.708399
1.62 -0.726115
1.63 -0.72858
1.64 -0.714525
1.65 -0.686768
1.66 -0.646469
1.67 -0.595127
1.68 -0.535808
1.69 -0.469828
1.7 -0.400252
1.71 -0.32903
1.72 -0.258431
1.73 -0.190093
1.74 -0.126174
1.75 -0.0674051
1.76 -0.014977
1.77 0.0304084
1.78 0.0691854
1.79 0.100442
1.8 0.125702
1.81 0.145194
1.82 0.15996
1.83 0.171312
1.84 0.180051
1.85 0.187691
1.86 0.195204
1.87 0.203643
1.88 0.213672
1.89 0.226169
1.9 0.241108
1.91 0.258787
1.92 0.278861
1.93 0.300791
1.94 0.323954
1.95 0.347285
1.96 0.369669
1.97 0.389856
1.98 0.406727
1.99 0.418505
2 0.424657
2.01 0.423353
2.02 0.41414
2.03 0.3964
2.04 0.368937
2.05 0.332684
2.06 0.2866
2.07 0.23194
2.08 0.169226
2.09 0.0990332
2.1 0.0232521
2.11 -0.0573902
2.12 -0.140809
2.13 -0.225533
2.14 -0.309692
2.15 -0.39176
2.16 -0.469526
2.17 -0.541842
2.18 -0.607017
2.19 -0.663387
2.2 -0.710715
2.21 -0.746489
2.22 -0.771513
2.23 -0.784587
2.24 -0.78536
2.25 -0.774844
2.26 -0.751391
2.27 -0.717324
2.28 -0.672316
2.29 -0.617353
2.3 -0.55396
2.31 -0.482157
2.32 -0.404308
2.33 -0.321119
2.34 -0.234227
2.35 -0.145111
2.36 -0.0551751
2.37 0.034037
2.38 0.120954
2.39 0.204124
2.4 0.282388
2.41 0.35368
2.42 0.417677
2.43 0.472355
2.44 0.517207
2.45 0.551604
2.46 0.57384
2.47 0.584911
2.48 0.583153
2.49 0.569528
2.5 0.544227
2.51 0.506967
2.52 0.459769
2.53 0.402365
2.54 0.336971
2.55 0.264776
2.56 0.187248
2.57 0.106578
2.58 0.0243876
2.59 -0.0571639
2.6 -0.136212
2.61 -0.210555
2.62 -0.279017
2.63 -0.338866
2.64 -0.389729
2.65 -0.429998
2.66 -0.458547
2.67 -0.47594
2.68 -0.480167
2.69 -0.473231
2.7 -0.454805
2.71 -0.425846
2.72 -0.388212
2.73 -0.342187
2.74 -0.290612
2.75 -0.234747
2.76 -0.176721
2.77 -0.118382
2.78 -0.0618291
2.79 -0.00851244
2.8 0.0396916
2.81 0.0815429
2.82 0.116381
2.83 0.142546
2.84 0.16081
2.85 0.170284
2.86 0.171754
2.87 0.166012
2.88 0.153385
2.89 0.135825
2.9 0.114148
2.91 0.0901788
2.92 0.0653369
2.93 0.0412558
2.94 0.0191784
2.95 0.000713545
2.96 -0.0133291
2.97 -0.0221548
2.98 -0.024839
2.99 -0.0218462
3 -0.012502
3.01 0.00214067
3.02 0.0215663
3.03 0.0449218
3.04 0.0707426
3.05 0.097921
3.06 0.124852
3.07 0.150148
3.08 0.172193
3.09 0.190099
3.1 0.201907
3.11 0.207454
3.12 0.205675
3.13 0.196045
3.14 0.17913
3.15 0.153941
3.16 0.122153
3.17 0.0839406
3.18 0.0404229
3.19 -0.00698412
3.2 -0.0573685
3.21 -0.108963
3.22 -0.160521
3.23 -0.210606
3.24 -0.258196
3.25 -0.301739
3.26 -0.340951
3.27 -0.374757
3.28 -0.402988
3.29 -0.425757
3.3 -0.442631
3.31 -0.454741
3.32 -0.462173
3.33 -0.466017
3.34 -0.467162
3.35 -0.466447
3.36 -0.465006
3.37 -0.463708
3.38 -0.463383
3.39 -0.464625
3.4 -0.468054
3.41 -0.473617
3.42 -0.481553
3.43 -0.491329
3.44 -0.502451
3.45 -0.514103
3.46 -0.525304
3.47 -0.534716
3.48 -0.541218
3.49 -0.543459
3.5 -0.53981
3.51 -0.52972
3.52 -0.510984
3.53 -0.483725
3.54 -0.446869
3.55 -0.399814
3.56 -0.343434
3.57 -0.276565
3.58 -0.201263
3.59 -0.117848
3.6 -0.0276876
3.61 0.0673081
3.62 0.165888
3.63 0.265623
3.64 0.364641
3.65 0.460713
3.66 0.552209
3.67 0.63625
3.68 0.712153
3.69 0.77759
3.7 0.831519
3.71 0.873606
3.72 0.901653
3.73 0.917224
3.74 0.919018
3.75 0.908081
3.76 0.885399
3.77 0.850807
3.78 0.806884
3.79 0.753909
3.8 0.693982
3.81 0.628572
3.82 0.558933
3.83 0.48695
3.84 0.413806
3.85 0.340925
3.86 0.269355
3.87 0.200266
3.88 0.134109
3.89 0.071936
3.9 0.0138088
3.91 -0.0399218
3.92 -0.0888835
3.93 -0.133534
3.94 -0.173297
3.95 -0.208809
3.96 -0.239997
3.97 -0.26684
3.98 -0.289812
3.99 -0.308341
4 -0.322946
4.01 -0.333292
4.02 -0.339143
4.03 -0.340701
4.04 -0.336979
4.05 -0.328464
4.06 -0.314536
4.07 -0.294989
4.08 -0.270111
4.09 -0.239023
4.1 -0.202681
4.11 -0.160802
4.12 -0.113894
4.13 -0.0627063
4.14 -0.007436
4.15 0.0505595
4.16 0.110597
4.17 0.171452
4.18 0.232047
4.19 0.290977
4.2 0.347293
4.21 0.399494
4.22 0.44662
4.23 0.487869
4.24 0.521687
4.25 0.548325
4.26 0.566399
4.27 0.576217
4.28 0.57777
4.29 0.570594
4.3 0.55604
4.31 0.533756
4.32 0.505182
4.33 0.471064
4.34 0.432183
4.35 0.390027
4.36 0.345323
4.37 0.299435
4.38 0.253287
4.39 0.207918
4.4 0.164003
4.41 0.122528
4.42 0.0837479
4.43 0.0481505
4.44 0.0160456
4.45 -0.0128354
4.46 -0.0380798
4.47 -0.0603798
4.48 -0.0798301
4.49 -0.0968267
4.5 -0.111946
4.51 -0.125371
4.52 -0.137754
4.53 -0.149353
4.54 -0.160493
4.55 -0.171389
4.56 -0.182128
4.57 -0.19273
4.58 -0.203076
4.59 -0.212952
4.6 -0.222122
4.61 -0.230084
4.62 -0.236607
4.63 -0.241107
4.64 -0.243218
4.65 -0.24266
4.66 -0.238755
4.67 -0.231669
4.68 -0.220857
4.69 -0.206478
4.7 -0.188634
4.71 -0.167206
4.72 -0.142888
4.73 -0.11573
4.74 -0.0864539
4.75 -0.0555684
4.76 -0.0236422
4.77 0.00862186
4.78 0.0405895
4.79 0.071661
4.8 0.1013
4.81 0.128887
4.82 0.154272
4.83 0.176818
4.84 0.196646
4.85 0.213593
4.86 0.22761
4.87 0.239114
4.88 0.247995
4.89 0.254895
4.9 0.260058
4.91 0.263898
4.92 0.266902
4.93 0.269389
4.94 0.271789
4.95 0.274386
4.96 0.27743
4.97 0.281014
4.98 0.285283
4.99 0.290089
5 0.295343
5.01 0.300791
5.02 0.306149
5.03 0.310992
5.04 0.315001
5.05 0.317672
5.06 0.318608
5.07 0.317528
5.08 0.313797
5.09 0.30749
5.1 0.298118
5.11 0.285718
5.12 0.270358
5.13 0.251836
5.14 0.230714
5.15 0.206969
5.16 0.181147
5.17 0.15365
5.18 0.124864
5.19 0.0953999
5.2 0.0656978
5.21 0.0362814
5.22 0.0075715
5.23 -0.0199365
5.24 -0.0460621
5.25 -0.0703325
5.26 -0.0927489
5.27 -0.113176
5.28 -0.131515
5.29 -0.148041
5.3 -0.162644
5.31 -0.175744
5.32 -0.187499
5.33 -0.198164
5.34 -0.208087
5.35 -0.217446
5.36 -0.226552
5.37 -0.235573
5.38 -0.244665
5.39 -0.253893
5.4 -0.263298
5.41 -0.272802
5.42 -0.282296
5.43 -0.291589
5.44 -0.300494
5.45 -0.308649
5.46 -0.315881
5.47 -0.321819
5.48 -0.326193
5.49 -0.328859
5.5 -0.329354
5.51 -0.327821
5.52 -0.323963
5.53 -0.317861
5.54 -0.309659
5.55 -0.299286
5.56 -0.287232
5.57 -0.273606
5.58 -0.258871
5.59 -0.243414
5.6 -0.227658
5.61 -0.212065
5.62 -0.197126
5.63 -0.183247
5.64 -0.170798
5.65 -0.160289
5.66 -0.151777
5.67 -0.145776
5.68 -0.142224
5.69 -0.141234
5.7 -0.142955
5.71 -0.147036
5.72 -0.153658
5.73 -0.162348
5.74 -0.172941
5.75 -0.185188
5.76 -0.198637
5.77 -0.213099
5.78 -0.22811
5.79 -0.243385
5.8 -0.258583
5.81 -0.273448
5.82 -0.287627
5.83 -0.300979
5.84 -0.313251
5.85 -0.324254
5.86 -0.333963
5.87 -0.342029
5.88 -0.348593
5.89 -0.353439
5.9 -0.356508
5.91 -0.357851
5.92 -0.35714
5.93 -0.354592
5.94 -0.349957
5.95 -0.343224
5.96 -0.334434
5.97 -0.323269
5.98 -0.310002
5.99 -0.294389
6 -0.276557
6.01 -0.256618
6.02 -0.234461
6.03 -0.210506
6.04 -0.184752
6.05 -0.157592
6.06 -0.129339
6.07 -0.100323
6.08 -0.0710339
6.09 -0.041926
6.1 -0.0134978
6.11 0.0137806
6.12 0.0392691
6.13 0.062721
6.14 0.083386
6.15 0.10114
6.16 0.115631
6.17 0.126465
6.18 0.13392
6.19 0.137516
6.2 0.137818
6.21 0.134928
6.22 0.129166
6.23 0.121242
6.24 0.111483
6.25 0.100797
6.26 0.089826
6.27 0.079412
6.28 0.0702036
6.29 0.063277
6.3 0.0590256
6.31 0.0582848
6.32 0.0616386
6.33 0.069167
6.34 0.0818506
6.35 0.0990805
6.36 0.121245
6.37 0.148023
6.38 0.17882
6.39 0.213577
6.4 0.251104
6.41 0.290885
6.42 0.331872
6.43 0.373134
6.44 0.41354
6.45 0.452208
6.46 0.487909
6.47 0.519781
6.48 0.547106
6.49 0.56856
6.5 0.584248
6.51 0.592954
6.52 0.594822
6.53 0.589739
6.54 0.577176
6.55 0.558161
6.56 0.532221
6.57 0.500467
6.58 0.463406
6.59 0.421543
6.6 0.376144
6.61 0.327668
6.62 0.277356
6.63 0.226004
6.64 0.174557
6.65 0.123788
6.66 0.0746601
6.67 0.0276786
6.68 -0.0164919
6.69 -0.0572508
6.7 -0.0945778
6.71 -0.127639
6.72 -0.156857
6.73 -0.181933
6.74 -0.202903
6.75 -0.220236
6.76 -0.233566
6.77 -0.243743
6.78 -0.250786
6.79 -0.255083
6.8 -0.257118
6.81 -0.256938
6.82 -0.25516
6.83 -0.251913
6.84 -0.247515
6.85 -0.242219
6.86 -0.23612
6.87 -0.229461
6.88 -0.22229
6.89 -0.214708
6.9 -0.206773
6.91 -0.198482
6.92 -0.189895
6.93 -0.18099
6.94 -0.171799
6.95 -0.162347
6.96 -0.152647
6.97 -0.142774
6.98 -0.132775
6.99 -0.12275
7 -0.112791
7.01 -0.103034
7.02 -0.0935726
7.03 -0.0845884
7.04 -0.0761723
7.05 -0.068451
7.06 -0.0615845
7.07 -0.0555675
7.08 -0.0505934
7.09 -0.0465853
7.1 -0.0435806
7.11 -0.0415743
7.12 -0.040404
7.13 -0.0400737
7.14 -0.0403323
7.15 -0.0410446
7.16 -0.0419936
7.17 -0.0429578
7.18 -0.0436676
7.19 -0.0439151
7.2 -0.0434339
7.21 -0.041973
7.22 -0.0394201
7.23 -0.035388
7.24 -0.0299419
7.25 -0.022845
7.26 -0.0140543
7.27 -0.00365469
7.28 0.00854336
7.29 0.0222143
7.3 0.0373767
7.31 0.0537905
7.32 0.071204
7.33 0.0894443
7.34 0.108128
7.35 0.126986
7.36 0.145661
7.37 0.163852
7.38 0.181126
7.39 0.197284
7.4 0.211868
7.41 0.224679
7.42 0.235496
7.43 0.243902
7.44 0.250009
7.45 0.253378
7.46 0.254147
7.47 0.252261
7.48 0.247571
7.49 0.240444
7.5 0.230674
7.51 0.218692
7.52 0.204634
7.53 0.188685
7.54 0.171292
7.55 0.152589
7.56 0.133062
7.57 0.113001
7.58 0.0927806
7.59 0.0727338
7.6 0.0532754
7.61 0.0346581
7.62 0.0172265
7.63 0.00129352
7.64 -0.0130563
7.65 -0.0253326
7.66 -0.0356848
7.67 -0.0438542
7.68 -0.0498029
7.69 -0.0536901
7.7 -0.0552693
7.71 -0.0549744
7.72 -0.0527846
7.73 -0.0489679
7.74 -0.0438335
7.75 -0.0375326
7.76 -0.0305236
7.77 -0.0230666
7.78 -0.0155488
7.79 -0.00828839
7.8 -0.00170631
7.81 0.00397009
7.82 0.00832527
7.83 0.0111469
7.84 0.012252
7.85 0.0112704
7.86 0.00832836
7.87 0.00310666
7.88 -0.0042413
7.89 -0.0136674
7.9 -0.0252022
7.91 -0.0384489
7.92 -0.0533911
7.93 -0.0695883
7.94 -0.0867601
7.95 -0.104558
7.96 -0.12256
7.97 -0.140354
7.98 -0.157539
7.99 -0.173713
8 -0.188404
8.01 -0.201427
8.02 -0.212164
8.03 -0.220607
8.04 -0.226421
8.05 -0.229371
8.06 -0.229625
8.07 -0.226718
8.08 -0.221119
8.09 -0.212739
8.1 -0.201763
8.11 -0.188608
8.12 -0.173255
8.13 -0.156356
8.14 -0.138132
8.15 -0.11903
8.16 -0.0994695
8.17 -0.0798516
8.18 -0.0605669
8.19 -0.0420121
8.2 -0.0245197
8.21 -0.0082967
8.22 0.00623742
8.23 0.0191449
8.24 0.0301493
8.25 0.0393093
8.26 0.0467153
8.27 0.0523054
8.28 0.0564675
8.29 0.0592683
8.3 0.0610835
8.31 0.0622105
8.32 0.0629714
8.33 0.0637366
8.34 0.0648749
8.35 0.0667049
8.36 0.0695143
8.37 0.0736698
8.38 0.0792249
8.39 0.08654
8.4 0.0955399
8.41 0.106282
8.42 0.118789
8.43 0.132762
8.44 0.148196
8.45 0.164655
8.46 0.181876
8.47 0.199473
8.48 0.217041
8.49 0.234091
8.5 0.250246
8.51 0.265038
8.52 0.277995
8.53 0.288938
8.54 0.297155
8.55 0.30276
8.56 0.305345
8.57 0.304781
8.58 0.301252
8.59 0.294332
8.6 0.284612
8.61 0.272013
8.62 0.256874
8.63 0.239622
8.64 0.220393
8.65 0.19985
8.66 0.178289
8.67 0.156221
8.68 0.134062
8.69 0.112282
8.7 0.0912042
8.71 0.0712606
8.72 0.052701
8.73 0.0357065
8.74 0.0206182
8.75 0.00729563
8.76 -0.00401958
8.77 -0.0135126
8.78 -0.0212897
8.79 -0.0274003
8.8 -0.0322318
8.81 -0.0358836
8.82 -0.0387449
8.83 -0.0410772
8.84 -0.0431801
8.85 -0.045342
8.86 -0.0478609
8.87 -0.0509418
8.88 -0.0547856
8.89 -0.0595906
8.9 -0.0653503
8.91 -0.0722548
8.92 -0.0801555
8.93 -0.0890362
8.94 -0.098787
8.95 -0.109177
8.96 -0.120072
8.97 -0.131162
8.98 -0.142203
8.99 -0.152886
9 -0.162986
9.01 -0.172073
9.02 -0.180027
9.03 -0.186504
9.04 -0.191276
9.05 -0.194286
9.06 -0.195099
9.07 -0.193915
9.08 -0.190477
9.09 -0.184824
9.1 -0.177091
9.11 -0.167087
9.12 -0.155219
9.13 -0.141435
9.14 -0.126009
9.15 -0.109181
9.16 -0.0910613
9.17 -0.0720472
9.18 -0.0523045
9.19 -0.0321623
9.2 -0.0118779
9.21 0.00824998
9.22 0.0279845
9.23 0.0469979
9.24 0.0650786
9.25 0.0820003
9.26 0.0974235
9.27 0.111318
9.28 0.123271
9.29 0.133284
9.3 0.141176
9.31 0.146695
9.32 0.149993
9.33 0.150669
9.34 0.148959
9.35 0.144752
9.36 0.137976
9.37 0.128915
9.38 0.117301
9.39 0.103551
9.4 0.0876679
9.41 0.069791
9.42 0.0502605
9.43 0.0290453
9.44 0.00660469
9.45 -0.0169212
9.46 -0.0412532
9.47 -0.0660951
9.48 -0.0912201
9.49 -0.116326
9.5 -0.141157
9.51 -0.165447
9.52 -0.189015
9.53 -0.211504
9.54 -0.232863
9.55 -0.252797
9.56 -0.271177
9.57 -0.287941
9.58 -0.302757
9.59 -0.315776
9.6 -0.326713
9.61 -0.335598
9.62 -0.34243
9.63 -0.346946
9.64 -0.349394
9.65 -0.349491
9.66 -0.347365
9.67 -0.343014
9.68 -0.336235
9.69 -0.327299
9.7 -0.315923
9.71 -0.302317
9.72 -0.286479
9.73 -0.268311
9.74 -0.24812
9.75 -0.225721
9.76 -0.20145
9.77 -0.175395
9.78 -0.147682
9.79 -0.118681
9.8 -0.0884895
9.81 -0.0575484
9.82 -0.0261388
9.83 0.00534804
9.84 0.0365528
9.85 0.0669683
9.86 0.0962736
9.87 0.123994
9.88 0.149663
9.89 0.173105
9.9 0.193534
9.91 0.211068
9.92 0.225206
9.93 0.235749
9.94 0.242823
9.95 0.245828
9.96 0.245349
9.97 0.241143
9.98 0.233477
9.99 0.222751
10 0.208911
10.01 0.192726
10.02 0.174363
10.03 0.15439
10.04 0.133293
10.05 0.111493
10.06 0.0895373
10.07 0.0678784
10.08 0.0469549
10.09 0.0271084
10.1 0.00882357
10.11 -0.00782364
10.12 -0.0224059
10.13 -0.0349202
10.14 -0.0452954
10.15 -0.053356
10.16 -0.0594069
10.17 -0.0632925
10.18 -0.0653631
10.19 -0.0657652
10.2 -0.0646494
10.21 -0.0623922
10.22 -0.0590972
10.23 -0.0551188
10.24 -0.0506466
10.25 -0.0458919
10.26 -0.0410458
10.27 -0.0362601
10.28 -0.031642
10.29 -0.027274
10.3 -0.0232088
10.31 -0.0194295
10.32 -0.0159627
10.33 -0.0127261
10.34 -0.00968178
10.35 -0.00675735
10.36 -0.00388047
10.37 -0.000980318
10.38 0.00199845
10.39 0.00510805
10.4 0.00837962
10.41 0.0118139
10.42 0.0154266
10.43 0.0191688
10.44 0.0230128
10.45 0.026899
10.46 0.0307709
10.47 0.0345548
10.48 0.0382044
10.49 0.0416533
10.5 0.0448707
10.51 0.0478453
10.52 0.0505532
10.53 0.0530513
10.54 0.0553655
10.55 0.0575833
10.56 0.0597904
10.57 0.0621079
10.58 0.0646343
10.59 0.0675253
10.6 0.0708752
10.61 0.074785
10.62 0.0793895
10.63 0.0846666
10.64 0.0907336
10.65 0.0974969
10.66 0.104915
10.67 0.112899
10.68 0.121248
10.69 0.129793
10.7 0.138264
10.71 0.146396
10.72 0.15384
10.73 0.160372
10.74 0.165484
10.75 0.169032
10.76 0.170636
10.77 0.169977
10.78 0.167049
10.79 0.161286
10.8 0.152982
10.81 0.141901
10.82 0.128096
10.83 0.11187
10.84 0.0930686
10.85 0.0723181
10.86 0.0497614
10.87 0.0258551
10.88 0.00106545
10.89 -0.0241894
10.9 -0.0493725
10.91 -0.0739823
10.92 -0.0975209
10.93 -0.119613
10.94 -0.139603
10.95 -0.157402
10.96 -0.172437
10.97 -0.184592
10.98 -0.193765
10.99 -0.199547
11 -0.202318
11.01 -0.201758
11.02 -0.198212
11.03 -0.191852
11.04 -0.182707
11.05 -0.171341
11.06 -0.15778
11.07 -0.142541
11.08 -0.125908
11.09 -0.108164
11.1 -0.0897202
11.11 -0.0708058
11.12 -0.0517524
11.13 -0.0327877
11.14 -0.0141564
11.15 0.00400746
11.16 0.0214658
11.17 0.0381784
11.18 0.0540192
11.19 0.0688879
11.2 0.0828248
11.21 0.0956349
11.22 0.107433
11.23 0.11812
11.24 0.127655
11.25 0.136101
11.26 0.14323
11.27 0.14919
11.28 0.153828
11.29 0.157101
11.3 0.159051
11.31 0.159429
11.32 0.158415
11.33 0.155851
11.34 0.151772
11.35 0.146269
11.36 0.139214
11.37 0.130885
11.38 0.121257
11.39 0.110537
11.4 0.0989169
11.41 0.0865281
11.42 0.0736814
11.43 0.0605748
11.44 0.0474933
11.45 0.0346736
11.46 0.0224277
11.47 0.0109145
11.48 0.000456767
11.49 -0.00882808
11.5 -0.0167959
11.51 -0.0232285
11.52 -0.028237
11.53 -0.0316144
11.54 -0.0335484
11.55 -0.0340884
11.56 -0.0333063
11.57 -0.031495
11.58 -0.0287303
11.59 -0.0253502
11.6 -0.0215628
11.61 -0.0176353
11.62 -0.0138078
11.63 -0.0103621
11.64 -0.00746842
11.65 -0.00533389
11.66 -0.00413401
11.67 -0.0038806
11.68 -0.00479474
11.69 -0.00672502
11.7 -0.00971252
11.71 -0.0136661
11.72 -0.018401
11.73 -0.0238565
11.74 -0.0297415
11.75 -0.0358894
11.76 -0.0420538
11.77 -0.04803
11.78 -0.0535364
11.79 -0.0584349
11.8 -0.0624778
11.81 -0.0655232
11.82 -0.0674991
11.83 -0.068173
11.84 -0.0676639
11.85 -0.0658276
11.86 -0.062757
11.87 -0.0585375
11.88 -0.0531555
11.89 -0.0468639
11.9 -0.0396962
11.91 -0.0318701
11.92 -0.0235378
11.93 -0.0148407
11.94 -0.00596865
11.95 0.00294209
11.96 0.0117463
11.97 0.0203311
11.98 0.0285673
11.99 0.0364153
12 0.0437509
12.01 0.0505763
12.02 0.0568479
12.03 0.0625196
12.04 0.067643
12.05 0.0721339
12.06 0.0760632
12.07 0.0794034
12.08 0.0821319
12.09 0.0842945
12.1 0.0857798
12.11 0.0866458
12.12 0.0868157
12.13 0.0862316
12.14 0.084911
12.15 0.0826662
12.16 0.079573
12.17 0.0755066
12.18 0.0704207
12.19 0.0643517
12.2 0.057121
12.21 0.0488839
12.22 0.039555
12.23 0.0291955
12.24 0.0179097
12.25 0.00566552
12.26 -0.00731011
12.27 -0.0209698
12.28 -0.0351329
12.29 -0.0496363
12.3 -0.0643205
12.31 -0.0789875
12.32 -0.093442
12.33 -0.107495
12.34 -0.120984
12.35 -0.13365
12.36 -0.145434
12.37 -0.156062
12.38 -0.165472
12.39 -0.173556
12.4 -0.180098
12.41 -0.185197
12.42 -0.188596
12.43 -0.190406
12.44 -0.19058
12.45 -0.189023
12.46 -0.185932
12.47 -0.181121
12.48 -0.174817
12.49 -0.167021
12.5 -0.157755
12.51 -0.147234
12.52 -0.135372
12.53 -0.122431
12.54 -0.108458
12.55 -0.0935658
12.56 -0.0779514
12.57 -0.0616575
12.58 -0.0449236
12.59 -0.0278677
12.6 -0.0106682
12.61 0.00651162
12.62 0.0234654
12.63 0.0400494
12.64 0.0560568
12.65 0.0713047
12.66 0.0856891
12.67 0.0989016
12.68 0.110962
12.69 0.12163
12.7 0.130832
12.71 0.138565
12.72 0.144584
12.73 0.149094
12.74 0.151941
12.75 0.153249
12.76 0.153133
12.77 0.151566
12.78 0.148858
12.79 0.145042
12.8 0.140382
12.81 0.135071
12.82 0.129291
12.83 0.123298
12.84 0.117287
12.85 0.111473
