# xPDFsuite Configuration #
[PDF]
wavelength = 0.1
dataformat = QA
inputfile = 20200702_090847_PDF_Ni_kapton_retake_6617-6636_0.chi
backgroundfile = 20200702_090622_PDF_kapton_6367-6386_0.chi
mode = xray
bgscale = 0.111455
composition = Ni
outputtype = gr
qmaxinst = 27.5
qmin = 0.1
qmax = 27.5
rmax = 80.0
rmin = 0.0
rstep = 0.01
rpoly = 0.9

[Misc]
inputdir = E:/Beamtime/PETRA-III_JUN2020/BeamData/processed/ExSitu_PDF/integration_20210219/chi
savedir = E:/Beamtime/PETRA-III_JUN2020/BeamData/processed/ExSitu_PDF/integration_20210219
backgroundfilefull = E:/Beamtime/PETRA-III_JUN2020/BeamData/processed/ExSitu_PDF/integration_20210219/chi/20200702_090622_PDF_kapton_6367-6386_0.chi

#### start data
#S 1
#L r($\AA$)  G($\AA^{-2}$)
0 0
0.01 0.00125439
0.02 0.00241216
0.03 0.00339234
0.04 0.00412563
0.05 0.00453096
0.06 0.00460137
0.07 0.0043331
0.08 0.00374427
0.09 0.00285805
0.1 0.00176435
0.11 0.000541112
0.12 -0.000725849
0.13 -0.00193486
0.14 -0.00299602
0.15 -0.0038349
0.16 -0.00439116
0.17 -0.00459525
0.18 -0.00445306
0.19 -0.00397437
0.2 -0.00318877
0.21 -0.00213244
0.22 -0.000899525
0.23 0.000427095
0.24 0.00176005
0.25 0.00299623
0.26 0.00404949
0.27 0.00484724
0.28 0.00532847
0.29 0.0054164
0.3 0.00510339
0.31 0.00437924
0.32 0.00324202
0.33 0.00166957
0.34 -0.000299298
0.35 -0.00264917
0.36 -0.00537219
0.37 -0.00849385
0.38 -0.011999
0.39 -0.0158973
0.4 -0.020205
0.41 -0.0249668
0.42 -0.0301591
0.43 -0.0357553
0.44 -0.0417027
0.45 -0.0479129
0.46 -0.0541973
0.47 -0.0603278
0.48 -0.0660145
0.49 -0.0708079
0.5 -0.0742676
0.51 -0.0759099
0.52 -0.0752004
0.53 -0.0713414
0.54 -0.0638738
0.55 -0.052341
0.56 -0.0363121
0.57 -0.0151248
0.58 0.0111614
0.59 0.042431
0.6 0.078456
0.61 0.119022
0.62 0.163137
0.63 0.209772
0.64 0.257776
0.65 0.30571
0.66 0.351905
0.67 0.394785
0.68 0.432759
0.69 0.463758
0.7 0.486471
0.71 0.499841
0.72 0.502928
0.73 0.494414
0.74 0.474509
0.75 0.44369
0.76 0.402599
0.77 0.35182
0.78 0.293352
0.79 0.229233
0.8 0.161536
0.81 0.0925955
0.82 0.0250815
0.83 -0.0386877
0.84 -0.0965643
0.85 -0.146066
0.86 -0.185722
0.87 -0.214673
0.88 -0.232317
0.89 -0.237931
0.9 -0.232414
0.91 -0.217115
0.92 -0.193512
0.93 -0.163241
0.94 -0.128945
0.95 -0.0931646
0.96 -0.0583013
0.97 -0.0270082
0.98 -0.00158435
0.99 0.0163223
1 0.0253697
1.01 0.0241444
1.02 0.0125702
1.03 -0.00871215
1.04 -0.0388492
1.05 -0.0767981
1.06 -0.120374
1.07 -0.167223
1.08 -0.21506
1.09 -0.261335
1.1 -0.30352
1.11 -0.339667
1.12 -0.368108
1.13 -0.387102
1.14 -0.396017
1.15 -0.395091
1.16 -0.384786
1.17 -0.365751
1.18 -0.339811
1.19 -0.309176
1.2 -0.276006
1.21 -0.242714
1.22 -0.211916
1.23 -0.185741
1.24 -0.166036
1.25 -0.154706
1.26 -0.152766
1.27 -0.160267
1.28 -0.177027
1.29 -0.202662
1.3 -0.235673
1.31 -0.274007
1.32 -0.315657
1.33 -0.358364
1.34 -0.399559
1.35 -0.437074
1.36 -0.469022
1.37 -0.493489
1.38 -0.509276
1.39 -0.516205
1.4 -0.514327
1.41 -0.50393
1.42 -0.486309
1.43 -0.463422
1.44 -0.43718
1.45 -0.409741
1.46 -0.383601
1.47 -0.360888
1.48 -0.343452
1.49 -0.333133
1.5 -0.331164
1.51 -0.337696
1.52 -0.352662
1.53 -0.375723
1.54 -0.405625
1.55 -0.440386
1.56 -0.478091
1.57 -0.516574
1.58 -0.553344
1.59 -0.586312
1.6 -0.613665
1.61 -0.633635
1.62 -0.645009
1.63 -0.647756
1.64 -0.642035
1.65 -0.628315
1.66 -0.607907
1.67 -0.58291
1.68 -0.555315
1.69 -0.52735
1.7 -0.501542
1.71 -0.479948
1.72 -0.464333
1.73 -0.456349
1.74 -0.45713
1.75 -0.466503
1.76 -0.484127
1.77 -0.509298
1.78 -0.54052
1.79 -0.575511
1.8 -0.612126
1.81 -0.648002
1.82 -0.680516
1.83 -0.707685
1.84 -0.72783
1.85 -0.73946
1.86 -0.74162
1.87 -0.734848
1.88 -0.719814
1.89 -0.697617
1.9 -0.670136
1.91 -0.640001
1.92 -0.609653
1.93 -0.581723
1.94 -0.559063
1.95 -0.543581
1.96 -0.536866
1.97 -0.540205
1.98 -0.554293
1.99 -0.578034
2 -0.610248
2.01 -0.649239
2.02 -0.692496
2.03 -0.736842
2.04 -0.779374
2.05 -0.81706
2.06 -0.8467
2.07 -0.866555
2.08 -0.875253
2.09 -0.871942
2.1 -0.856534
2.11 -0.831162
2.12 -0.798029
2.13 -0.760026
2.14 -0.721061
2.15 -0.685325
2.16 -0.656674
2.17 -0.638953
2.18 -0.636104
2.19 -0.649296
2.2 -0.679223
2.21 -0.725476
2.22 -0.786128
2.23 -0.855926
2.24 -0.92923
2.25 -0.998867
2.26 -1.05498
2.27 -1.08861
2.28 -1.09028
2.29 -1.04984
2.3 -0.954764
2.31 -0.800393
2.32 -0.580886
2.33 -0.291405
2.34 0.073465
2.35 0.50706
2.36 1.00483
2.37 1.56009
2.38 2.16421
2.39 2.80013
2.4 3.453
2.41 4.10633
2.42 4.73978
2.43 5.33569
2.44 5.87706
2.45 6.34716
2.46 6.725
2.47 7.00453
2.48 7.17739
2.49 7.23734
2.5 7.17511
2.51 7.00155
2.52 6.72242
2.53 6.34586
2.54 5.87913
2.55 5.34399
2.56 4.75632
2.57 4.13286
2.58 3.49141
2.59 2.85158
2.6 2.22903
2.61 1.63814
2.62 1.09543
2.63 0.607615
2.64 0.18123
2.65 -0.179557
2.66 -0.468576
2.67 -0.692988
2.68 -0.85688
2.69 -0.966011
2.7 -1.02493
2.71 -1.04663
2.72 -1.03999
2.73 -1.01388
2.74 -0.976651
2.75 -0.93728
2.76 -0.901924
2.77 -0.875425
2.78 -0.862394
2.79 -0.863564
2.8 -0.879027
2.81 -0.907657
2.82 -0.947871
2.83 -0.995402
2.84 -1.04666
2.85 -1.09791
2.86 -1.14489
2.87 -1.18441
2.88 -1.21399
2.89 -1.23184
2.9 -1.23604
2.91 -1.22768
2.92 -1.20784
2.93 -1.17826
2.94 -1.14098
2.95 -1.09966
2.96 -1.05737
2.97 -1.01712
2.98 -0.982347
2.99 -0.955279
3 -0.937616
3.01 -0.930455
3.02 -0.934993
3.03 -0.949986
3.04 -0.974195
3.05 -1.00591
3.06 -1.04315
3.07 -1.08281
3.08 -1.1223
3.09 -1.15911
3.1 -1.19045
3.11 -1.21467
3.12 -1.2306
3.13 -1.2376
3.14 -1.23504
3.15 -1.22425
3.16 -1.20661
3.17 -1.18384
3.18 -1.15797
3.19 -1.13165
3.2 -1.10712
3.21 -1.08639
3.22 -1.07166
3.23 -1.06383
3.24 -1.06327
3.25 -1.0698
3.26 -1.0828
3.27 -1.10006
3.28 -1.11916
3.29 -1.13725
3.3 -1.15058
3.31 -1.15557
3.32 -1.14891
3.33 -1.12743
3.34 -1.08697
3.35 -1.02607
3.36 -0.943698
3.37 -0.839386
3.38 -0.712245
3.39 -0.564973
3.4 -0.400467
3.41 -0.222042
3.42 -0.0334651
3.43 0.159567
3.44 0.35177
3.45 0.537884
3.46 0.711579
3.47 0.867804
3.48 1.00238
3.49 1.11152
3.5 1.19028
3.51 1.23756
3.52 1.25305
3.53 1.23678
3.54 1.18801
3.55 1.11013
3.56 1.00669
3.57 0.88118
3.58 0.736781
3.59 0.578974
3.6 0.412607
3.61 0.242023
3.62 0.0716099
3.63 -0.0944767
3.64 -0.253127
3.65 -0.401804
3.66 -0.53784
3.67 -0.66031
3.68 -0.769109
3.69 -0.864389
3.7 -0.94617
3.71 -1.0161
3.72 -1.076
3.73 -1.12749
3.74 -1.17199
3.75 -1.21148
3.76 -1.24756
3.77 -1.28137
3.78 -1.3137
3.79 -1.34509
3.8 -1.37564
3.81 -1.40507
3.82 -1.43272
3.83 -1.45776
3.84 -1.47934
3.85 -1.49657
3.86 -1.50833
3.87 -1.51402
3.88 -1.51351
3.89 -1.50681
3.9 -1.49408
3.91 -1.47636
3.92 -1.4551
3.93 -1.43187
3.94 -1.40857
3.95 -1.38743
3.96 -1.37042
3.97 -1.35932
3.98 -1.35606
3.99 -1.36169
4 -1.37624
4.01 -1.39929
4.02 -1.42987
4.03 -1.46539
4.04 -1.50235
4.05 -1.53672
4.06 -1.56308
4.07 -1.57518
4.08 -1.56727
4.09 -1.53316
4.1 -1.46496
4.11 -1.35611
4.12 -1.20278
4.13 -1.00077
4.14 -0.744705
4.15 -0.432949
4.16 -0.0679627
4.17 0.348219
4.18 0.813478
4.19 1.32114
4.2 1.86139
4.21 2.42493
4.22 3.00108
4.23 3.57627
4.24 4.13739
4.25 4.67159
4.26 5.16405
4.27 5.60059
4.28 5.97203
4.29 6.26874
4.3 6.47944
4.31 6.5969
4.32 6.62179
4.33 6.55327
4.34 6.38969
4.35 6.13485
4.36 5.79972
4.37 5.39285
4.38 4.92271
4.39 4.40198
4.4 3.84628
4.41 3.26865
4.42 2.68239
4.43 2.10196
4.44 1.53944
4.45 1.00528
4.46 0.510031
4.47 0.0625799
4.48 -0.334004
4.49 -0.676638
4.5 -0.962373
4.51 -1.19104
4.52 -1.36818
4.53 -1.49788
4.54 -1.58422
4.55 -1.63338
4.56 -1.6543
4.57 -1.65385
4.58 -1.63859
4.59 -1.61549
4.6 -1.59092
4.61 -1.5696
4.62 -1.55558
4.63 -1.55209
4.64 -1.56002
4.65 -1.57965
4.66 -1.61052
4.67 -1.65099
4.68 -1.69787
4.69 -1.74808
4.7 -1.79806
4.71 -1.84348
4.72 -1.88064
4.73 -1.90599
4.74 -1.91582
4.75 -1.90631
4.76 -1.87613
4.77 -1.82363
4.78 -1.7472
4.79 -1.64555
4.8 -1.52046
4.81 -1.37287
4.82 -1.20386
4.83 -1.01498
4.84 -0.810105
4.85 -0.592173
4.86 -0.364321
4.87 -0.1303
4.88 0.105478
4.89 0.339097
4.9 0.566355
4.91 0.782275
4.92 0.983288
4.93 1.16558
4.94 1.32505
4.95 1.45676
4.96 1.55928
4.97 1.63017
4.98 1.66692
4.99 1.66641
5 1.63043
5.01 1.55924
5.02 1.45336
5.03 1.31324
5.04 1.14395
5.05 0.948946
5.06 0.732071
5.07 0.497645
5.08 0.25229
5.09 0.00133276
5.1 -0.249761
5.11 -0.494811
5.12 -0.728907
5.13 -0.947675
5.14 -1.1471
5.15 -1.32267
5.16 -1.4739
5.17 -1.59989
5.18 -1.70041
5.19 -1.77513
5.2 -1.8279
5.21 -1.86139
5.22 -1.87866
5.23 -1.88286
5.24 -1.87881
5.25 -1.86996
5.26 -1.85943
5.27 -1.84999
5.28 -1.8433
5.29 -1.83994
5.3 -1.83957
5.31 -1.8406
5.32 -1.84008
5.33 -1.83442
5.34 -1.81924
5.35 -1.78805
5.36 -1.73632
5.37 -1.65886
5.38 -1.55063
5.39 -1.4044
5.4 -1.21944
5.41 -0.993837
5.42 -0.726882
5.43 -0.416782
5.44 -0.0698825
5.45 0.309165
5.46 0.714256
5.47 1.13831
5.48 1.5701
5.49 1.99977
5.5 2.41693
5.51 2.80805
5.52 3.16386
5.53 3.47486
5.54 3.73251
5.55 3.92402
5.56 4.04871
5.57 4.10332
5.58 4.08655
5.59 3.99354
5.6 3.83333
5.61 3.61097
5.62 3.33302
5.63 3.00444
5.64 2.63896
5.65 2.24644
5.66 1.83687
5.67 1.42056
5.68 1.00825
5.69 0.608354
5.7 0.228195
5.71 -0.123671
5.72 -0.444371
5.73 -0.731285
5.74 -0.983086
5.75 -1.19722
5.76 -1.3778
5.77 -1.52756
5.78 -1.64973
5.79 -1.74658
5.8 -1.82409
5.81 -1.88623
5.82 -1.9365
5.83 -1.97743
5.84 -2.01202
5.85 -2.04167
5.86 -2.06693
5.87 -2.08718
5.88 -2.10159
5.89 -2.10861
5.9 -2.10631
5.91 -2.09154
5.92 -2.06275
5.93 -2.0183
5.94 -1.9569
5.95 -1.87659
5.96 -1.77862
5.97 -1.66426
5.98 -1.53536
5.99 -1.39404
6 -1.2448
6.01 -1.09186
6.02 -0.939594
6.03 -0.793345
6.04 -0.657836
6.05 -0.537173
6.06 -0.435066
6.07 -0.356243
6.08 -0.301946
6.09 -0.272976
6.1 -0.269571
6.11 -0.292589
6.12 -0.338937
6.13 -0.405743
6.14 -0.490009
6.15 -0.588969
6.16 -0.697935
6.17 -0.813106
6.18 -0.93115
6.19 -1.0489
6.2 -1.16374
6.21 -1.27397
6.22 -1.37853
6.23 -1.47655
6.24 -1.56843
6.25 -1.65482
6.26 -1.73648
6.27 -1.81395
6.28 -1.88798
6.29 -1.95869
6.3 -2.02551
6.31 -2.08662
6.32 -2.13956
6.33 -2.18102
6.34 -2.20667
6.35 -2.20971
6.36 -2.1842
6.37 -2.12422
6.38 -2.02325
6.39 -1.87176
6.4 -1.66488
6.41 -1.39915
6.42 -1.07121
6.43 -0.675644
6.44 -0.214906
6.45 0.306527
6.46 0.883697
6.47 1.51152
6.48 2.17774
6.49 2.8692
6.5 3.57252
6.51 4.27188
6.52 4.94972
6.53 5.59027
6.54 6.17798
6.55 6.6936
6.56 7.12375
6.57 7.45937
6.58 7.69163
6.59 7.80829
6.6 7.80824
6.61 7.69521
6.62 7.47239
6.63 7.14098
6.64 6.71307
6.65 6.20345
6.66 5.62529
6.67 4.9913
6.68 4.31987
6.69 3.62844
6.7 2.93229
6.71 2.24721
6.72 1.588
6.73 0.965553
6.74 0.389223
6.75 -0.130837
6.76 -0.589722
6.77 -0.986984
6.78 -1.32223
6.79 -1.59428
6.8 -1.80742
6.81 -1.96863
6.82 -2.08351
6.83 -2.15685
6.84 -2.19634
6.85 -2.20993
6.86 -2.20363
6.87 -2.18256
6.88 -2.15207
6.89 -2.11634
6.9 -2.07815
6.91 -2.03945
6.92 -2.00138
6.93 -1.9642
6.94 -1.92767
6.95 -1.89116
6.96 -1.85375
6.97 -1.8147
6.98 -1.77339
6.99 -1.72943
7 -1.68294
7.01 -1.63468
7.02 -1.5857
7.03 -1.5376
7.04 -1.49253
7.05 -1.45261
7.06 -1.42013
7.07 -1.39778
7.08 -1.38806
7.09 -1.39224
7.1 -1.41163
7.11 -1.44759
7.12 -1.50034
7.13 -1.56841
7.14 -1.65037
7.15 -1.7444
7.16 -1.84736
7.17 -1.95512
7.18 -2.06367
7.19 -2.16832
7.2 -2.2636
7.21 -2.34488
7.22 -2.40742
7.23 -2.44573
7.24 -2.4545
7.25 -2.4312
7.26 -2.37272
7.27 -2.2753
7.28 -2.1363
7.29 -1.95697
7.3 -1.73748
7.31 -1.47775
7.32 -1.17934
7.33 -0.84745
7.34 -0.486065
7.35 -0.0994684
7.36 0.306343
7.37 0.723555
7.38 1.14515
7.39 1.56333
7.4 1.96894
7.41 2.35421
7.42 2.71128
7.43 3.03135
7.44 3.30507
7.45 3.52811
7.46 3.695
7.47 3.79962
7.48 3.83639
7.49 3.80724
7.5 3.71205
7.51 3.55064
7.52 3.32432
7.53 3.04165
7.54 2.70871
7.55 2.33203
7.56 1.91996
7.57 1.48454
7.58 1.03575
7.59 0.584034
7.6 0.141255
7.61 -0.282518
7.62 -0.67806
7.63 -1.03606
7.64 -1.34662
7.65 -1.6064
7.66 -1.81123
7.67 -1.95725
7.68 -2.0408
7.69 -2.06638
7.7 -2.03622
7.71 -1.953
7.72 -1.81992
7.73 -1.64627
7.74 -1.43865
7.75 -1.20377
7.76 -0.948974
7.77 -0.683421
7.78 -0.414304
7.79 -0.148649
7.8 0.105937
7.81 0.344043
7.82 0.560725
7.83 0.751299
7.84 0.910347
7.85 1.03704
7.86 1.12948
7.87 1.18595
7.88 1.20381
7.89 1.18565
7.9 1.13217
7.91 1.04412
7.92 0.921552
7.93 0.769193
7.94 0.589813
7.95 0.386428
7.96 0.162027
7.97 -0.0773572
7.98 -0.327003
7.99 -0.581799
8 -0.835619
8.01 -1.08232
8.02 -1.31605
8.03 -1.53078
8.04 -1.71861
8.05 -1.87571
8.06 -1.99743
8.07 -2.0795
8.08 -2.11571
8.09 -2.10733
8.1 -2.05378
8.11 -1.95547
8.12 -1.81172
8.13 -1.62958
8.14 -1.41382
8.15 -1.17019
8.16 -0.904806
8.17 -0.627569
8.18 -0.346592
8.19 -0.0702128
8.2 0.191521
8.21 0.431217
8.22 0.641867
8.23 0.817236
8.24 0.948754
8.25 1.03584
8.26 1.0765
8.27 1.07001
8.28 1.0137
8.29 0.913928
8.3 0.774402
8.31 0.599824
8.32 0.39402
8.33 0.166337
8.34 -0.0764757
8.35 -0.327518
8.36 -0.579339
8.37 -0.824684
8.38 -1.0575
8.39 -1.27229
8.4 -1.46196
8.41 -1.62405
8.42 -1.75554
8.43 -1.85415
8.44 -1.91558
8.45 -1.94176
8.46 -1.93296
8.47 -1.88995
8.48 -1.81171
8.49 -1.70289
8.5 -1.56622
8.51 -1.40475
8.52 -1.22075
8.53 -1.02018
8.54 -0.807656
8.55 -0.588035
8.56 -0.366918
8.57 -0.150536
8.58 0.0553725
8.59 0.245019
8.6 0.410513
8.61 0.547356
8.62 0.650839
8.63 0.716737
8.64 0.738472
8.65 0.716458
8.66 0.650529
8.67 0.541596
8.68 0.389613
8.69 0.202085
8.7 -0.0142067
8.71 -0.251351
8.72 -0.49986
8.73 -0.747091
8.74 -0.981189
8.75 -1.18995
8.76 -1.35739
8.77 -1.47255
8.78 -1.52513
8.79 -1.50571
8.8 -1.40068
8.81 -1.20883
8.82 -0.929087
8.83 -0.561973
8.84 -0.105675
8.85 0.427872
8.86 1.02759
8.87 1.68125
8.88 2.37577
8.89 3.09087
8.9 3.8083
8.91 4.50988
8.92 5.1738
8.93 5.78229
8.94 6.32004
8.95 6.77296
8.96 7.12222
8.97 7.36241
8.98 7.48989
8.99 7.5022
9 7.39295
9.01 7.17161
9.02 6.84757
9.03 6.43027
9.04 5.92712
9.05 5.3563
9.06 4.73391
9.07 4.07476
9.08 3.39346
9.09 2.70684
9.1 2.02858
9.11 1.37054
9.12 0.745548
9.13 0.161809
9.14 -0.375266
9.15 -0.861387
9.16 -1.29093
9.17 -1.66516
9.18 -1.98666
9.19 -2.25792
9.2 -2.48015
9.21 -2.65979
9.22 -2.80303
9.23 -2.91508
9.24 -3.00007
9.25 -3.06437
9.26 -3.11329
9.27 -3.15094
9.28 -3.18062
9.29 -3.20574
9.3 -3.22858
9.31 -3.25059
9.32 -3.27259
9.33 -3.29473
9.34 -3.3165
9.35 -3.3369
9.36 -3.35423
9.37 -3.36636
9.38 -3.37108
9.39 -3.36579
9.4 -3.34682
9.41 -3.31098
9.42 -3.25559
9.43 -3.17755
9.44 -3.07245
9.45 -2.93761
9.46 -2.77159
9.47 -2.5726
9.48 -2.33778
9.49 -2.06729
9.5 -1.76303
9.51 -1.42674
9.52 -1.06
9.53 -0.667772
9.54 -0.256382
9.55 0.167886
9.56 0.597649
9.57 1.02361
9.58 1.43686
9.59 1.82841
9.6 2.1874
9.61 2.5041
9.62 2.7717
9.63 2.98316
9.64 3.12965
9.65 3.2066
9.66 3.21417
9.67 3.15183
9.68 3.01813
9.69 2.81718
9.7 2.55726
9.71 2.24542
9.72 1.88879
9.73 1.49849
9.74 1.08687
9.75 0.664794
9.76 0.243665
9.77 -0.164556
9.78 -0.550409
9.79 -0.905539
9.8 -1.22124
9.81 -1.49138
9.82 -1.71455
9.83 -1.88943
9.84 -2.01477
9.85 -2.093
9.86 -2.13046
9.87 -2.13255
9.88 -2.10495
9.89 -2.05562
9.9 -1.99344
9.91 -1.92585
9.92 -1.86027
9.93 -1.80398
9.94 -1.76204
9.95 -1.73837
9.96 -1.73635
9.97 -1.75739
9.98 -1.79966
9.99 -1.86099
10 -1.93824
10.01 -2.02609
10.02 -2.11789
10.03 -2.20711
10.04 -2.28629
10.05 -2.34714
10.06 -2.38342
10.07 -2.38896
10.08 -2.3571
10.09 -2.28217
10.1 -2.16331
10.11 -1.99918
10.12 -1.78861
10.13 -1.53265
10.14 -1.23739
10.15 -0.907869
10.16 -0.54989
10.17 -0.171578
10.18 0.216841
10.19 0.606095
10.2 0.986032
10.21 1.34515
10.22 1.67461
10.23 1.96577
10.24 2.20945
10.25 2.39669
10.26 2.52536
10.27 2.59232
10.28 2.59461
10.29 2.53083
10.3 2.4075
10.31 2.22915
10.32 2.00102
10.33 1.73041
10.34 1.42945
10.35 1.10813
10.36 0.777006
10.37 0.448181
10.38 0.13262
10.39 -0.160023
10.4 -0.42025
10.41 -0.638381
10.42 -0.811166
10.43 -0.93523
10.44 -1.00816
10.45 -1.02872
10.46 -1.00325
10.47 -0.936668
10.48 -0.835005
10.49 -0.705979
10.5 -0.560874
10.51 -0.409135
10.52 -0.260478
10.53 -0.125643
10.54 -0.0124341
10.55 0.0724994
10.56 0.123515
10.57 0.135481
10.58 0.110228
10.59 0.0494991
10.6 -0.0432312
10.61 -0.162492
10.62 -0.297915
10.63 -0.439987
10.64 -0.578003
10.65 -0.698737
10.66 -0.791409
10.67 -0.845647
10.68 -0.851435
10.69 -0.79705
10.7 -0.680642
10.71 -0.499327
10.72 -0.251988
10.73 0.0623747
10.74 0.433392
10.75 0.853009
10.76 1.31126
10.77 1.79609
10.78 2.29072
10.79 2.78052
10.8 3.25025
10.81 3.68139
10.82 4.06188
10.83 4.37973
10.84 4.62424
10.85 4.78152
10.86 4.8526
10.87 4.83579
10.88 4.73159
10.89 4.53868
10.9 4.27083
10.91 3.93723
10.92 3.54861
10.93 3.11573
10.94 2.65631
10.95 2.18393
10.96 1.71192
10.97 1.25508
10.98 0.82435
10.99 0.428985
11 0.0764701
11.01 -0.223911
11.02 -0.47323
11.03 -0.671305
11.04 -0.819897
11.05 -0.919652
11.06 -0.980361
11.07 -1.00885
11.08 -1.0127
11.09 -0.999321
11.1 -0.978627
11.11 -0.957853
11.12 -0.94337
11.13 -0.94173
11.14 -0.955786
11.15 -0.987274
11.16 -1.03634
11.17 -1.10249
11.18 -1.18088
11.19 -1.26681
11.2 -1.35462
11.21 -1.43689
11.22 -1.50653
11.23 -1.55687
11.24 -1.58165
11.25 -1.57247
11.26 -1.52707
11.27 -1.44295
11.28 -1.31901
11.29 -1.15301
11.3 -0.950683
11.31 -0.716699
11.32 -0.457
11.33 -0.178241
11.34 0.108968
11.35 0.395332
11.36 0.671406
11.37 0.925502
11.38 1.14929
11.39 1.33519
11.4 1.47668
11.41 1.56477
11.42 1.59938
11.43 1.58009
11.44 1.50785
11.45 1.38228
11.46 1.21192
11.47 1.00382
11.48 0.765683
11.49 0.505407
11.5 0.234431
11.51 -0.0377956
11.52 -0.302418
11.53 -0.54954
11.54 -0.772433
11.55 -0.965958
11.56 -1.12631
11.57 -1.24887
11.58 -1.33551
11.59 -1.38848
11.6 -1.41099
11.61 -1.40626
11.62 -1.38196
11.63 -1.34476
11.64 -1.30119
11.65 -1.25808
11.66 -1.22179
11.67 -1.197
11.68 -1.18721
11.69 -1.1957
11.7 -1.22198
11.71 -1.26431
11.72 -1.31979
11.73 -1.3843
11.74 -1.45125
11.75 -1.5141
11.76 -1.56612
11.77 -1.59896
11.78 -1.60638
11.79 -1.58349
11.8 -1.52619
11.81 -1.42951
11.82 -1.29428
11.83 -1.12276
11.84 -0.918198
11.85 -0.684431
11.86 -0.430245
11.87 -0.164551
11.88 0.103493
11.89 0.363055
11.9 0.603445
11.91 0.815623
11.92 0.991233
11.93 1.1202
11.94 1.19804
11.95 1.22266
11.96 1.19281
11.97 1.10634
11.98 0.968297
11.99 0.785015
12 0.562857
12.01 0.308123
12.02 0.0311189
12.03 -0.258695
12.04 -0.55288
12.05 -0.842863
12.06 -1.12099
12.07 -1.38191
12.08 -1.62152
12.09 -1.83583
12.1 -2.02438
12.11 -2.18849
12.12 -2.32989
12.13 -2.45033
12.14 -2.55388
12.15 -2.6445
12.16 -2.72529
12.17 -2.79853
12.18 -2.86603
12.19 -2.9282
12.2 -2.98393
12.21 -3.03016
12.22 -3.0626
12.23 -3.07639
12.24 -3.0656
12.25 -3.0219
12.26 -2.93829
12.27 -2.80978
12.28 -2.63118
12.29 -2.3958
12.3 -2.10193
12.31 -1.75173
12.32 -1.34751
12.33 -0.891939
12.34 -0.393617
12.35 0.136165
12.36 0.686245
12.37 1.24372
12.38 1.79301
12.39 2.31992
12.4 2.81083
12.41 3.25011
12.42 3.62506
12.43 3.92844
12.44 4.15328
12.45 4.29143
12.46 4.34139
12.47 4.30811
12.48 4.19561
12.49 4.0076
12.5 3.75385
12.51 3.44759
12.52 3.09995
12.53 2.72185
12.54 2.32644
12.55 1.92579
12.56 1.52968
12.57 1.14739
12.58 0.786647
12.59 0.451497
12.6 0.1449
12.61 -0.130661
12.62 -0.375262
12.63 -0.591804
12.64 -0.782544
12.65 -0.949398
12.66 -1.09518
12.67 -1.22316
12.68 -1.33481
12.69 -1.43014
12.7 -1.50821
12.71 -1.56782
12.72 -1.606
12.73 -1.61783
12.74 -1.59765
12.75 -1.54176
12.76 -1.44535
12.77 -1.30246
12.78 -1.10848
12.79 -0.863809
12.8 -0.568196
12.81 -0.22172
12.82 0.17225
12.83 0.605134
12.84 1.06908
12.85 1.55488
12.86 2.05023
12.87 2.5419
12.88 3.01745
12.89 3.4632
12.9 3.86482
12.91 4.2134
12.92 4.5001
12.93 4.71586
12.94 4.85373
12.95 4.91592
12.96 4.9033
12.97 4.81732
12.98 4.66259
12.99 4.45109
13 4.19225
13.01 3.89591
13.02 3.57391
13.03 3.23952
13.04 2.90343
13.05 2.5759
13.06 2.26696
13.07 1.98263
13.08 1.72761
13.09 1.50551
13.1 1.31834
13.11 1.16282
13.12 1.03607
13.13 0.934356
13.14 0.852539
13.15 0.783221
13.16 0.720373
13.17 0.658016
13.18 0.589964
13.19 0.51182
13.2 0.420246
13.21 0.312697
13.22 0.187484
13.23 0.0461592
13.24 -0.109654
13.25 -0.277558
13.26 -0.454139
13.27 -0.634656
13.28 -0.814954
13.29 -0.990751
13.3 -1.15733
13.31 -1.31174
13.32 -1.45139
13.33 -1.5742
13.34 -1.67833
13.35 -1.76509
13.36 -1.83549
13.37 -1.89109
13.38 -1.934
13.39 -1.96822
13.4 -1.99706
13.41 -2.02395
13.42 -2.05276
13.43 -2.08679
13.44 -2.12883
13.45 -2.1814
13.46 -2.24719
13.47 -2.32657
13.48 -2.42006
13.49 -2.52772
13.5 -2.64959
13.51 -2.78332
13.52 -2.9271
13.53 -3.07878
13.54 -3.23575
13.55 -3.39441
13.56 -3.55148
13.57 -3.70337
13.58 -3.84535
