# xPDFsuite Configuration #
[PDF]
wavelength = 0.1
dataformat = QA
inputfile = B3_Bronze-3nm_ss_028.chi
backgroundfile = B3_Li-bkg_DD155_two_ss_att.chi
mode = xray
bgscale = 0.985
composition = Ti O2
outputtype = gr
qmaxinst = 23.5
qmin = 0.1
qmax = 23.0
rmax = 40.0
rmin = 0.0
rstep = 0.01
rpoly = 0.9

[Misc]
inputdir = E:/Beamtime/PETRA-III_September-2019/BeamData/processed/Run1/B3/integration_20210218/chi/chi_w_sigmas/chi_scaled
savedir = E:/Beamtime/PETRA-III_September-2019/BeamData/processed/Run1/B3/integration_20210218
backgroundfilefull = E:/Beamtime/PETRA-III_September-2019/BeamData/processed/Run1/B3/integration_20210218/chi/chi_w_sigmas/chi_scaled/B3_Li-bkg_DD155_two_ss_att.chi

#### start data
#S 1
#L r($\AA$)  G($\AA^{-2}$)
0 0
0.01 0.00572592
0.02 0.0111495
0.03 0.0159649
0.04 0.0198985
0.05 0.0228194
0.06 0.0243988
0.07 0.0247377
0.08 0.0236979
0.09 0.0213737
0.1 0.0179382
0.11 0.0134586
0.12 0.0083013
0.13 0.00267166
0.14 -0.00309001
0.15 -0.00869938
0.16 -0.0137972
0.17 -0.0181847
0.18 -0.0215351
0.19 -0.0237148
0.2 -0.024628
0.21 -0.0240963
0.22 -0.0223051
0.23 -0.0191865
0.24 -0.0150001
0.25 -0.00993766
0.26 -0.00422632
0.27 0.00179054
0.28 0.00781872
0.29 0.0135299
0.3 0.0186329
0.31 0.0227819
0.32 0.0258539
0.33 0.0274824
0.34 0.0276848
0.35 0.0263374
0.36 0.023375
0.37 0.0189995
0.38 0.0131169
0.39 0.00607389
0.4 -0.00200502
0.41 -0.0108839
0.42 -0.0202696
0.43 -0.0299509
0.44 -0.0396347
0.45 -0.0490903
0.46 -0.0580768
0.47 -0.0664555
0.48 -0.0739337
0.49 -0.0805014
0.5 -0.0859608
0.51 -0.0902246
0.52 -0.0932888
0.53 -0.0948948
0.54 -0.0951643
0.55 -0.0938742
0.56 -0.0909675
0.57 -0.0864064
0.58 -0.079834
0.59 -0.0713633
0.6 -0.060617
0.61 -0.0475315
0.62 -0.0320231
0.63 -0.0136924
0.64 0.00720555
0.65 0.0310196
0.66 0.0575212
0.67 0.0865767
0.68 0.118146
0.69 0.151626
0.7 0.186786
0.71 0.222895
0.72 0.259335
0.73 0.295255
0.74 0.32992
0.75 0.362171
0.76 0.39128
0.77 0.416292
0.78 0.436037
0.79 0.450313
0.8 0.457563
0.81 0.458057
0.82 0.451169
0.83 0.436559
0.84 0.415039
0.85 0.385915
0.86 0.350756
0.87 0.309944
0.88 0.264529
0.89 0.215953
0.9 0.165198
0.91 0.113955
0.92 0.0635465
0.93 0.0154635
0.94 -0.0293105
0.95 -0.0689662
0.96 -0.103321
0.97 -0.131208
0.98 -0.152366
0.99 -0.167083
1 -0.174789
1.01 -0.176975
1.02 -0.17394
1.03 -0.167109
1.04 -0.157851
1.05 -0.147628
1.06 -0.138106
1.07 -0.131039
1.08 -0.127948
1.09 -0.130063
1.1 -0.139241
1.11 -0.155499
1.12 -0.180304
1.13 -0.213205
1.14 -0.253952
1.15 -0.302348
1.16 -0.356479
1.17 -0.415463
1.18 -0.476901
1.19 -0.538794
1.2 -0.598473
1.21 -0.653845
1.22 -0.701513
1.23 -0.739759
1.24 -0.766124
1.25 -0.77796
1.26 -0.775246
1.27 -0.754552
1.28 -0.717468
1.29 -0.663151
1.3 -0.591945
1.31 -0.506479
1.32 -0.40655
1.33 -0.296482
1.34 -0.178263
1.35 -0.055372
1.36 0.0687355
1.37 0.19008
1.38 0.305483
1.39 0.411009
1.4 0.50326
1.41 0.58049
1.42 0.637755
1.43 0.676027
1.44 0.692239
1.45 0.68651
1.46 0.660031
1.47 0.611235
1.48 0.544554
1.49 0.46024
1.5 0.361986
1.51 0.253028
1.52 0.136134
1.53 0.0157051
1.54 -0.104907
1.55 -0.221945
1.56 -0.332392
1.57 -0.432272
1.58 -0.520407
1.59 -0.593135
1.6 -0.650141
1.61 -0.690539
1.62 -0.712934
1.63 -0.719643
1.64 -0.709542
1.65 -0.685729
1.66 -0.649635
1.67 -0.603121
1.68 -0.549474
1.69 -0.490461
1.7 -0.429261
1.71 -0.368069
1.72 -0.309329
1.73 -0.254529
1.74 -0.205995
1.75 -0.164029
1.76 -0.129622
1.77 -0.103048
1.78 -0.0833573
1.79 -0.0708455
1.8 -0.0634
1.81 -0.0600711
1.82 -0.0590772
1.83 -0.0586908
1.84 -0.0569564
1.85 -0.052391
1.86 -0.04322
1.87 -0.0281341
1.88 -0.00658372
1.89 0.0230149
1.9 0.0597591
1.91 0.104146
1.92 0.155181
1.93 0.211627
1.94 0.272468
1.95 0.335449
1.96 0.398761
1.97 0.460079
1.98 0.517396
1.99 0.567777
2 0.610047
2.01 0.641192
2.02 0.660234
2.03 0.666001
2.04 0.656378
2.05 0.632637
2.06 0.592862
2.07 0.538838
2.08 0.47116
2.09 0.390412
2.1 0.299488
2.11 0.199086
2.12 0.0924327
2.13 -0.0184237
2.14 -0.130877
2.15 -0.242464
2.16 -0.350288
2.17 -0.452378
2.18 -0.546367
2.19 -0.629882
2.2 -0.702356
2.21 -0.760469
2.22 -0.805063
2.23 -0.834544
2.24 -0.848415
2.25 -0.847958
2.26 -0.831111
2.27 -0.800869
2.28 -0.756891
2.29 -0.70051
2.3 -0.633708
2.31 -0.556622
2.32 -0.472232
2.33 -0.381481
2.34 -0.286405
2.35 -0.188804
2.36 -0.0903773
2.37 0.00708646
2.38 0.101776
2.39 0.192075
2.4 0.276727
2.41 0.353473
2.42 0.422051
2.43 0.480303
2.44 0.527777
2.45 0.563876
2.46 0.586851
2.47 0.597859
2.48 0.595205
2.49 0.579995
2.5 0.552499
2.51 0.512505
2.52 0.462196
2.53 0.401393
2.54 0.332482
2.55 0.256798
2.56 0.176004
2.57 0.0924401
2.58 0.00800585
2.59 -0.0749924
2.6 -0.154452
2.61 -0.22789
2.62 -0.29406
2.63 -0.349794
2.64 -0.39476
2.65 -0.427107
2.66 -0.445554
2.67 -0.450802
2.68 -0.440502
2.69 -0.417041
2.7 -0.380057
2.71 -0.330713
2.72 -0.271232
2.73 -0.202031
2.74 -0.126514
2.75 -0.0462835
2.76 0.0360242
2.77 0.118131
2.78 0.197293
2.79 0.271744
2.8 0.338991
2.81 0.397404
2.82 0.446091
2.83 0.482709
2.84 0.508253
2.85 0.52134
2.86 0.522892
2.87 0.513838
2.88 0.494324
2.89 0.466967
2.9 0.432566
2.91 0.393551
2.92 0.351774
2.93 0.309263
2.94 0.267914
2.95 0.229773
2.96 0.196202
2.97 0.168431
2.98 0.147888
2.99 0.134316
3 0.128867
3.01 0.130507
3.02 0.138862
3.03 0.153174
3.04 0.171701
3.05 0.193412
3.06 0.216252
3.07 0.238616
3.08 0.258542
3.09 0.274735
3.1 0.284872
3.11 0.288412
3.12 0.283943
3.13 0.270602
3.14 0.248825
3.15 0.217231
3.16 0.177619
3.17 0.130033
3.18 0.0756745
3.19 0.0161945
3.2 -0.047427
3.21 -0.112977
3.22 -0.178944
3.23 -0.243477
3.24 -0.305195
3.25 -0.362046
3.26 -0.413485
3.27 -0.457971
3.28 -0.495075
3.29 -0.524757
3.3 -0.54617
3.31 -0.560669
3.32 -0.568096
3.33 -0.569775
3.34 -0.5668
3.35 -0.560121
3.36 -0.551406
3.37 -0.541773
3.38 -0.532591
3.39 -0.524888
3.4 -0.519819
3.41 -0.517728
3.42 -0.51945
3.43 -0.524758
3.44 -0.533524
3.45 -0.545381
3.46 -0.559283
3.47 -0.574391
3.48 -0.589313
3.49 -0.602748
3.5 -0.613023
3.51 -0.619119
3.52 -0.618839
3.53 -0.611663
3.54 -0.596205
3.55 -0.571379
3.56 -0.537547
3.57 -0.493025
3.58 -0.439396
3.59 -0.37647
3.6 -0.305118
3.61 -0.227019
3.62 -0.142698
3.63 -0.0546729
3.64 0.0356378
3.65 0.12614
3.66 0.215088
3.67 0.300065
3.68 0.379864
3.69 0.452343
3.7 0.516189
3.71 0.570742
3.72 0.613827
3.73 0.646393
3.74 0.66703
3.75 0.676342
3.76 0.674964
3.77 0.662447
3.78 0.64095
3.79 0.610453
3.8 0.572718
3.81 0.528949
3.82 0.480042
3.83 0.427754
3.84 0.372905
3.85 0.316828
3.86 0.260409
3.87 0.204556
3.88 0.14983
3.89 0.0969504
3.9 0.0461302
3.91 -0.00235087
3.92 -0.048221
3.93 -0.0916948
3.94 -0.132421
3.95 -0.170727
3.96 -0.206529
3.97 -0.23974
3.98 -0.270552
3.99 -0.298455
4 -0.323618
4.01 -0.345612
4.02 -0.364019
4.03 -0.378797
4.04 -0.388849
4.05 -0.394395
4.06 -0.394656
4.07 -0.389225
4.08 -0.378239
4.09 -0.360589
4.1 -0.337145
4.11 -0.307436
4.12 -0.271842
4.13 -0.231063
4.14 -0.185059
4.15 -0.135262
4.16 -0.0821735
4.17 -0.0270061
4.18 0.0291542
4.19 0.0850893
4.2 0.139693
4.21 0.19163
4.22 0.23988
4.23 0.283623
4.24 0.321451
4.25 0.353442
4.26 0.378382
4.27 0.396481
4.28 0.407726
4.29 0.411765
4.3 0.409767
4.31 0.401541
4.32 0.388372
4.33 0.370987
4.34 0.350188
4.35 0.327252
4.36 0.302965
4.37 0.278454
4.38 0.254545
4.39 0.232136
4.4 0.211667
4.41 0.193968
4.42 0.179033
4.43 0.167126
4.44 0.158275
4.45 0.152019
4.46 0.14837
4.47 0.14651
4.48 0.146022
4.49 0.146232
4.5 0.146512
4.51 0.146146
4.52 0.144653
4.53 0.141451
4.54 0.13613
4.55 0.128591
4.56 0.118358
4.57 0.10583
4.58 0.0909519
4.59 0.0741206
4.6 0.0558234
4.61 0.0364895
4.62 0.0168539
4.63 -0.00243958
4.64 -0.0206696
4.65 -0.0372535
4.66 -0.051282
4.67 -0.0625312
4.68 -0.0701843
4.69 -0.0740679
4.7 -0.0740149
4.71 -0.0695411
4.72 -0.0611868
4.73 -0.048619
4.74 -0.0324329
4.75 -0.0129555
4.76 0.00954859
4.77 0.0342778
4.78 0.0609562
4.79 0.0888421
4.8 0.117467
4.81 0.146319
4.82 0.174973
4.83 0.202998
4.84 0.230168
4.85 0.256259
4.86 0.281102
4.87 0.304779
4.88 0.327143
4.89 0.348439
4.9 0.368721
4.91 0.388127
4.92 0.406859
4.93 0.424948
4.94 0.442566
4.95 0.459706
4.96 0.476332
4.97 0.492393
4.98 0.507591
4.99 0.5218
5 0.534616
5.01 0.545655
5.02 0.554649
5.03 0.560802
5.04 0.564069
5.05 0.563733
5.06 0.559499
5.07 0.551237
5.08 0.538179
5.09 0.520798
5.1 0.498569
5.11 0.471807
5.12 0.440795
5.13 0.405439
5.14 0.366653
5.15 0.324544
5.16 0.279937
5.17 0.233433
5.18 0.185634
5.19 0.137326
5.2 0.089155
5.21 0.0417723
5.22 -0.00427598
5.23 -0.0483333
5.24 -0.0902263
5.25 -0.129307
5.26 -0.165628
5.27 -0.19901
5.28 -0.229306
5.29 -0.256902
5.3 -0.28158
5.31 -0.303906
5.32 -0.324033
5.33 -0.342238
5.34 -0.358981
5.35 -0.374375
5.36 -0.388866
5.37 -0.402613
5.38 -0.415796
5.39 -0.428556
5.4 -0.440864
5.41 -0.452748
5.42 -0.464071
5.43 -0.474661
5.44 -0.48438
5.45 -0.492817
5.46 -0.499896
5.47 -0.505228
5.48 -0.50859
5.49 -0.509898
5.5 -0.508692
5.51 -0.505212
5.52 -0.499191
5.53 -0.490783
5.54 -0.480189
5.55 -0.4674
5.56 -0.452959
5.57 -0.43703
5.58 -0.420112
5.59 -0.402618
5.6 -0.385001
5.61 -0.3677
5.62 -0.351208
5.63 -0.335886
5.64 -0.322056
5.65 -0.310157
5.66 -0.300175
5.67 -0.292512
5.68 -0.287019
5.69 -0.28371
5.7 -0.282592
5.71 -0.283274
5.72 -0.285756
5.73 -0.289561
5.74 -0.294439
5.75 -0.300058
5.76 -0.306041
5.77 -0.312075
5.78 -0.317849
5.79 -0.323094
5.8 -0.327549
5.81 -0.331126
5.82 -0.333538
5.83 -0.334865
5.84 -0.334999
5.85 -0.333945
5.86 -0.331833
5.87 -0.328559
5.88 -0.324361
5.89 -0.319223
5.9 -0.31322
5.91 -0.30644
5.92 -0.298782
5.93 -0.290343
5.94 -0.280988
5.95 -0.270644
5.96 -0.259247
5.97 -0.246502
5.98 -0.232434
5.99 -0.216739
6 -0.199339
6.01 -0.180176
6.02 -0.158977
6.03 -0.135972
6.04 -0.110994
6.05 -0.0842927
6.06 -0.0560722
6.07 -0.0265219
6.08 0.00385958
6.09 0.0347114
6.1 0.0654666
6.11 0.0956073
6.12 0.124426
6.13 0.151505
6.14 0.175965
6.15 0.197477
6.16 0.215499
6.17 0.229388
6.18 0.239275
6.19 0.244358
6.2 0.245109
6.21 0.241425
6.22 0.233429
6.23 0.221874
6.24 0.2068
6.25 0.189312
6.26 0.169994
6.27 0.149757
6.28 0.129496
6.29 0.110286
6.3 0.0929126
6.31 0.078388
6.32 0.0676059
6.33 0.060941
6.34 0.0597258
6.35 0.0636183
6.36 0.0733589
6.37 0.0889186
6.38 0.109872
6.39 0.136609
6.4 0.167874
6.41 0.203475
6.42 0.242383
6.43 0.28362
6.44 0.326278
6.45 0.369122
6.46 0.411021
6.47 0.450836
6.48 0.48763
6.49 0.519965
6.5 0.547533
6.51 0.568954
6.52 0.584018
6.53 0.592349
6.54 0.593124
6.55 0.587134
6.56 0.573608
6.57 0.553487
6.58 0.527096
6.59 0.494713
6.6 0.457624
6.61 0.416038
6.62 0.371296
6.63 0.324144
6.64 0.275493
6.65 0.226303
6.66 0.177437
6.67 0.129651
6.68 0.0836621
6.69 0.0401799
6.7 -0.000576862
6.71 -0.0377382
6.72 -0.0715068
6.73 -0.101495
6.74 -0.127612
6.75 -0.150206
6.76 -0.168816
6.77 -0.1842
6.78 -0.196292
6.79 -0.20541
6.8 -0.212001
6.81 -0.216019
6.82 -0.218094
6.83 -0.218294
6.84 -0.216924
6.85 -0.21425
6.86 -0.210307
6.87 -0.205403
6.88 -0.199555
6.89 -0.192904
6.9 -0.185544
6.91 -0.177474
6.92 -0.168841
6.93 -0.159647
6.94 -0.150006
6.95 -0.140008
6.96 -0.129746
6.97 -0.119375
6.98 -0.109044
6.99 -0.0989321
7 -0.0892153
7.01 -0.0801484
7.02 -0.0718499
7.03 -0.0646386
7.04 -0.0586078
7.05 -0.0539348
7.06 -0.0508401
7.07 -0.0492458
7.08 -0.0494184
7.09 -0.0511607
7.1 -0.0544743
7.11 -0.0592812
7.12 -0.0652789
7.13 -0.0723938
7.14 -0.080209
7.15 -0.0884644
7.16 -0.0967874
7.17 -0.104847
7.18 -0.112179
7.19 -0.11852
7.2 -0.123466
7.21 -0.126677
7.22 -0.128047
7.23 -0.127034
7.24 -0.123831
7.25 -0.118152
7.26 -0.110026
7.27 -0.0996467
7.28 -0.0868452
7.29 -0.0721388
7.3 -0.0555848
7.31 -0.0375684
7.32 -0.0184603
7.33 0.00144801
7.34 0.0216819
7.35 0.0418804
7.36 0.0616393
7.37 0.0806397
7.38 0.0984264
7.39 0.11487
7.4 0.129554
7.41 0.14239
7.42 0.153264
7.43 0.161917
7.44 0.168577
7.45 0.17301
7.46 0.17547
7.47 0.176041
7.48 0.174763
7.49 0.171995
7.5 0.167736
7.51 0.162341
7.52 0.15597
7.53 0.148805
7.54 0.141105
7.55 0.132993
7.56 0.124686
7.57 0.116317
7.58 0.108028
7.59 0.0999162
7.6 0.0921173
7.61 0.0846739
7.62 0.0776756
7.63 0.0711929
7.64 0.0652292
7.65 0.0599256
7.66 0.055231
7.67 0.0512365
7.68 0.0479788
7.69 0.0454372
7.7 0.0437535
7.71 0.0428267
7.72 0.0427377
7.73 0.0434594
7.74 0.0449256
7.75 0.047179
7.76 0.0500413
7.77 0.053472
7.78 0.0573045
7.79 0.0613748
7.8 0.0654881
7.81 0.0694273
7.82 0.0729222
7.83 0.0757227
7.84 0.0775956
7.85 0.0781478
7.86 0.0772916
7.87 0.0746001
7.88 0.0699858
7.89 0.0632925
7.9 0.0542257
7.91 0.0429907
7.92 0.0292972
7.93 0.013432
7.94 -0.00451495
7.95 -0.0244324
7.96 -0.045865
7.97 -0.0686668
7.98 -0.0923033
7.99 -0.116406
8 -0.140494
8.01 -0.164149
8.02 -0.18679
8.03 -0.208093
8.04 -0.2276
8.05 -0.244878
8.06 -0.259862
8.07 -0.271929
8.08 -0.281334
8.09 -0.287837
8.1 -0.291468
8.11 -0.292569
8.12 -0.29097
8.13 -0.287346
8.14 -0.281855
8.15 -0.274957
8.16 -0.267126
8.17 -0.258744
8.18 -0.250319
8.19 -0.242259
8.2 -0.23496
8.21 -0.228673
8.22 -0.223803
8.23 -0.220317
8.24 -0.21843
8.25 -0.21803
8.26 -0.218952
8.27 -0.221073
8.28 -0.223945
8.29 -0.227247
8.3 -0.230471
8.31 -0.23316
8.32 -0.234675
8.33 -0.234659
8.34 -0.232381
8.35 -0.227533
8.36 -0.219723
8.37 -0.208383
8.38 -0.193682
8.39 -0.175022
8.4 -0.152768
8.41 -0.126931
8.42 -0.0975836
8.43 -0.0653879
8.44 -0.0304106
8.45 0.00650222
8.46 0.0448663
8.47 0.0840023
8.48 0.123218
8.49 0.161743
8.5 0.198975
8.51 0.234221
8.52 0.266802
8.53 0.296487
8.54 0.322311
8.55 0.344497
8.56 0.36255
8.57 0.376379
8.58 0.386312
8.59 0.391889
8.6 0.393962
8.61 0.392522
8.62 0.388074
8.63 0.381205
8.64 0.372162
8.65 0.361751
8.66 0.350356
8.67 0.338561
8.68 0.326813
8.69 0.315604
8.7 0.305209
8.71 0.296015
8.72 0.288174
8.73 0.281767
8.74 0.276974
8.75 0.273553
8.76 0.271541
8.77 0.270635
8.78 0.270596
8.79 0.271157
8.8 0.271938
8.81 0.272595
8.82 0.272768
8.83 0.272128
8.84 0.27026
8.85 0.267023
8.86 0.26195
8.87 0.25502
8.88 0.246035
8.89 0.23481
8.9 0.22154
8.91 0.205952
8.92 0.188407
8.93 0.168944
8.94 0.147728
8.95 0.125129
8.96 0.101236
8.97 0.0765229
8.98 0.0512432
8.99 0.025765
9 0.000413344
9.01 -0.024386
9.02 -0.0483728
9.03 -0.071153
9.04 -0.0923942
9.05 -0.111934
9.06 -0.129209
9.07 -0.144301
9.08 -0.156793
9.09 -0.166577
9.1 -0.173672
9.11 -0.177639
9.12 -0.178858
9.13 -0.177049
9.14 -0.172414
9.15 -0.165149
9.16 -0.155159
9.17 -0.14299
9.18 -0.128664
9.19 -0.112636
9.2 -0.0952532
9.21 -0.0768262
9.22 -0.0578629
9.23 -0.0387444
9.24 -0.0199357
9.25 -0.00183543
9.26 0.0150367
9.27 0.0304534
9.28 0.0438371
9.29 0.055057
9.3 0.0638343
9.31 0.0698303
9.32 0.073225
9.33 0.073597
9.34 0.071306
9.35 0.0663512
9.36 0.0588383
9.37 0.0492328
9.38 0.0375493
9.39 0.0243913
9.4 0.0100317
9.41 -0.00511657
9.42 -0.0206298
9.43 -0.0361279
9.44 -0.051258
9.45 -0.0656895
9.46 -0.0791358
9.47 -0.0914935
9.48 -0.102437
9.49 -0.112112
9.5 -0.12042
9.51 -0.127477
9.52 -0.133493
9.53 -0.138557
9.54 -0.14304
9.55 -0.147158
9.56 -0.151232
9.57 -0.15552
9.58 -0.160346
9.59 -0.165855
9.6 -0.172295
9.61 -0.179732
9.62 -0.188167
9.63 -0.197647
9.64 -0.207917
9.65 -0.21885
9.66 -0.230096
9.67 -0.241327
9.68 -0.252081
9.69 -0.262
9.7 -0.270486
9.71 -0.277185
9.72 -0.281679
9.73 -0.283393
9.74 -0.282332
9.75 -0.277855
9.76 -0.270154
9.77 -0.259111
9.78 -0.24467
9.79 -0.227354
9.8 -0.207089
9.81 -0.184641
9.82 -0.160399
9.83 -0.134971
9.84 -0.109053
9.85 -0.0833421
9.86 -0.0585107
9.87 -0.0352625
9.88 -0.0143114
9.89 0.00402973
9.9 0.0187702
9.91 0.0300562
9.92 0.0373524
9.93 0.0405509
9.94 0.0399455
9.95 0.0351227
9.96 0.0269426
9.97 0.0154648
9.98 0.00129189
9.99 -0.0149251
10 -0.0327416
10.01 -0.0513098
10.02 -0.070044
10.03 -0.0882509
10.04 -0.105405
10.05 -0.120778
10.06 -0.134162
10.07 -0.144971
10.08 -0.153089
10.09 -0.158447
10.1 -0.160762
10.11 -0.160482
10.12 -0.15748
10.13 -0.152239
10.14 -0.145071
10.15 -0.136266
10.16 -0.126388
10.17 -0.115741
10.18 -0.104803
10.19 -0.0939057
10.2 -0.083397
10.21 -0.073458
10.22 -0.0643497
10.23 -0.0560692
10.24 -0.0486448
10.25 -0.0420216
10.26 -0.0359859
10.27 -0.0303939
10.28 -0.0249361
10.29 -0.0193541
10.3 -0.0133289
10.31 -0.00665283
10.32 0.00105859
10.33 0.00986307
10.34 0.0199698
10.35 0.0314515
10.36 0.0441838
10.37 0.0582544
10.38 0.0732866
10.39 0.0891127
10.4 0.105367
10.41 0.121684
10.42 0.137597
10.43 0.15274
10.44 0.166619
10.45 0.178842
10.46 0.189169
10.47 0.197037
10.48 0.202571
10.49 0.205406
10.5 0.20566
10.51 0.203494
10.52 0.198884
10.53 0.192414
10.54 0.184264
10.55 0.17502
10.56 0.165158
10.57 0.155233
10.58 0.145758
10.59 0.137344
10.6 0.130405
10.61 0.125333
10.62 0.12262
10.63 0.122217
10.64 0.124556
10.65 0.12936
10.66 0.136558
10.67 0.145978
10.68 0.157054
10.69 0.169506
10.7 0.182621
10.71 0.195848
10.72 0.208481
10.73 0.219986
10.74 0.229481
10.75 0.236631
10.76 0.240806
10.77 0.241506
10.78 0.238758
10.79 0.231783
10.8 0.221134
10.81 0.206602
10.82 0.188445
10.83 0.167242
10.84 0.143051
10.85 0.11685
10.86 0.0890718
10.87 0.0604906
10.88 0.0317896
10.89 0.00376824
10.9 -0.0230033
10.91 -0.0477646
10.92 -0.069992
10.93 -0.0893612
10.94 -0.105123
10.95 -0.117501
10.96 -0.125984
10.97 -0.13077
10.98 -0.132035
10.99 -0.129671
11 -0.124401
11.01 -0.116262
11.02 -0.105907
11.03 -0.0937768
11.04 -0.0802801
11.05 -0.066021
11.06 -0.0513894
11.07 -0.0368544
11.08 -0.0227603
11.09 -0.0094792
11.1 0.00285436
11.11 0.0139239
11.12 0.0237574
11.13 0.0322863
11.14 0.039485
11.15 0.045553
11.16 0.0504452
11.17 0.0544367
11.18 0.0576207
11.19 0.0601363
11.2 0.0621607
11.21 0.0637344
11.22 0.0649883
11.23 0.0659318
11.24 0.0665548
11.25 0.0668425
11.26 0.0666415
11.27 0.065909
11.28 0.0644644
11.29 0.0621518
11.3 0.0588929
11.31 0.0543851
11.32 0.0486862
11.33 0.0415954
11.34 0.0331037
11.35 0.0232862
11.36 0.0120437
11.37 -0.000319155
11.38 -0.0137429
11.39 -0.0279342
11.4 -0.042615
11.41 -0.057476
11.42 -0.0721646
11.43 -0.0862878
11.44 -0.099496
11.45 -0.111481
11.46 -0.121766
11.47 -0.130284
11.48 -0.136567
11.49 -0.140607
11.5 -0.142303
11.51 -0.141455
11.52 -0.138387
11.53 -0.132929
11.54 -0.125494
11.55 -0.116278
11.56 -0.105525
11.57 -0.0937097
11.58 -0.0810878
11.59 -0.0681413
11.6 -0.0552213
11.61 -0.0427418
11.62 -0.0309733
11.63 -0.0203682
11.64 -0.0110435
11.65 -0.00326369
11.66 0.00278985
11.67 0.0071996
11.68 0.00968203
11.69 0.0105503
11.7 0.00977996
11.71 0.00753625
11.72 0.00410174
11.73 -0.000457729
11.74 -0.00574245
11.75 -0.011574
11.76 -0.0176716
11.77 -0.0238035
11.78 -0.0297181
11.79 -0.0352533
11.8 -0.0402043
11.81 -0.0444475
11.82 -0.0479237
11.83 -0.0504672
11.84 -0.0521695
11.85 -0.0529367
11.86 -0.0528422
11.87 -0.0519495
11.88 -0.0502463
11.89 -0.0478986
11.9 -0.0449062
11.91 -0.0413902
11.92 -0.0374189
11.93 -0.0330256
11.94 -0.0283088
11.95 -0.0232729
11.96 -0.0179795
11.97 -0.0124499
11.98 -0.00669109
11.99 -0.000743005
12 0.00540279
12.01 0.0117065
12.02 0.0181482
12.03 0.0246946
12.04 0.0312927
12.05 0.0378846
12.06 0.0443968
12.07 0.0507452
12.08 0.0568188
12.09 0.0625491
12.1 0.0677584
12.11 0.0724025
12.12 0.0763423
12.13 0.0794618
12.14 0.0817534
12.15 0.0829988
12.16 0.0832999
12.17 0.0825523
12.18 0.0807629
12.19 0.0780266
12.2 0.0742583
12.21 0.0696765
12.22 0.0642976
12.23 0.0582624
12.24 0.0517186
12.25 0.0447514
12.26 0.0375481
12.27 0.0302158
12.28 0.0228907
12.29 0.0156712
12.3 0.00867385
12.31 0.00193815
12.32 -0.00445616
12.33 -0.0105013
12.34 -0.0162002
12.35 -0.0215389
12.36 -0.0265917
12.37 -0.0313714
12.38 -0.0359545
12.39 -0.0403933
12.4 -0.0447373
12.41 -0.0490395
12.42 -0.0533286
12.43 -0.0576209
12.44 -0.0619112
12.45 -0.0661679
12.46 -0.0703474
12.47 -0.074359
12.48 -0.0781244
12.49 -0.081532
12.5 -0.0844341
12.51 -0.0867651
12.52 -0.0882989
12.53 -0.0890128
12.54 -0.088766
12.55 -0.0874503
12.56 -0.0851144
12.57 -0.0815717
12.58 -0.0770027
12.59 -0.0713868
12.6 -0.0648249
12.61 -0.0575101
12.62 -0.0495131
12.63 -0.0411284
12.64 -0.032536
12.65 -0.0239956
12.66 -0.0157219
12.67 -0.00803093
12.68 -0.0010651
12.69 0.00489835
12.7 0.0097007
12.71 0.0132711
12.72 0.01535
12.73 0.0160924
12.74 0.0153641
12.75 0.0133036
12.76 0.0100564
12.77 0.00568817
12.78 0.000539125
12.79 -0.00522527
12.8 -0.0112735
12.81 -0.0173306
12.82 -0.0230529
12.83 -0.0281969
12.84 -0.0323851
12.85 -0.0354196
12.86 -0.0370817
12.87 -0.0370693
12.88 -0.0354384
