# xPDFsuite Configuration #
[PDF]
wavelength = 0.1
dataformat = QA
inputfile = B3_Bronze-3nm_ss_004.chi
backgroundfile = B3_Li-bkg_DD155_two_ss_att.chi
mode = xray
bgscale = 0.985
composition = Ti O2
outputtype = gr
qmaxinst = 23.5
qmin = 0.1
qmax = 23.0
rmax = 40.0
rmin = 0.0
rstep = 0.01
rpoly = 0.9

[Misc]
inputdir = E:/Beamtime/PETRA-III_September-2019/BeamData/processed/Run1/B3/integration_20210218/chi/chi_w_sigmas/chi_scaled
savedir = E:/Beamtime/PETRA-III_September-2019/BeamData/processed/Run1/B3/integration_20210218
backgroundfilefull = E:/Beamtime/PETRA-III_September-2019/BeamData/processed/Run1/B3/integration_20210218/chi/chi_w_sigmas/chi_scaled/B3_Li-bkg_DD155_two_ss_att.chi

#### start data
#S 1
#L r($\AA$)  G($\AA^{-2}$)
0 0
0.01 0.00421291
0.02 0.00820133
0.03 0.0117382
0.04 0.0146207
0.05 0.0167522
0.06 0.0178897
0.07 0.0181091
0.08 0.0173097
0.09 0.0155634
0.1 0.0130002
0.11 0.00967315
0.12 0.00585442
0.13 0.00169919
0.14 -0.00253955
0.15 -0.00665094
0.16 -0.0103673
0.17 -0.013544
0.18 -0.0159394
0.19 -0.0174579
0.2 -0.0180316
0.21 -0.0175324
0.22 -0.016102
0.23 -0.013695
0.24 -0.0105084
0.25 -0.00668808
0.26 -0.00240826
0.27 0.00207567
0.28 0.00653946
0.29 0.01074
0.3 0.014459
0.31 0.017437
0.32 0.0195852
0.33 0.0206262
0.34 0.0205753
0.35 0.0193381
0.36 0.016862
0.37 0.013298
0.38 0.0085662
0.39 0.00292541
0.4 -0.00353901
0.41 -0.0106578
0.42 -0.0182113
0.43 -0.0260547
0.44 -0.0339603
0.45 -0.0417582
0.46 -0.0492606
0.47 -0.0563493
0.48 -0.062791
0.49 -0.0685502
0.5 -0.073448
0.51 -0.0773778
0.52 -0.0803012
0.53 -0.0819514
0.54 -0.0823913
0.55 -0.0813759
0.56 -0.0788108
0.57 -0.0746328
0.58 -0.0684727
0.59 -0.0604369
0.6 -0.0501619
0.61 -0.0376095
0.62 -0.0227313
0.63 -0.00519799
0.64 0.0146948
0.65 0.0371966
0.66 0.0620203
0.67 0.0889675
0.68 0.117886
0.69 0.148184
0.7 0.179519
0.71 0.211198
0.72 0.242601
0.73 0.272881
0.74 0.301427
0.75 0.327119
0.76 0.349399
0.77 0.367448
0.78 0.380279
0.79 0.387861
0.8 0.388888
0.81 0.383782
0.82 0.372133
0.83 0.353824
0.84 0.329716
0.85 0.299439
0.86 0.264474
0.87 0.225345
0.88 0.18313
0.89 0.139111
0.9 0.0944064
0.91 0.0503687
0.92 0.00825711
0.93 -0.0306588
0.94 -0.0656577
0.95 -0.0951184
0.96 -0.119164
0.97 -0.136864
0.98 -0.148208
0.99 -0.153662
1 -0.152942
1.01 -0.147571
1.02 -0.138041
1.03 -0.125797
1.04 -0.112173
1.05 -0.0987031
1.06 -0.0868242
1.07 -0.0782586
1.08 -0.0743037
1.09 -0.076002
1.1 -0.0850197
1.11 -0.101143
1.12 -0.125623
1.13 -0.157828
1.14 -0.197357
1.15 -0.243832
1.16 -0.295342
1.17 -0.350876
1.18 -0.40813
1.19 -0.465158
1.2 -0.519393
1.21 -0.568957
1.22 -0.610631
1.23 -0.642961
1.24 -0.663739
1.25 -0.670627
1.26 -0.663788
1.27 -0.640193
1.28 -0.601514
1.29 -0.547153
1.3 -0.477638
1.31 -0.395518
1.32 -0.300882
1.33 -0.197752
1.34 -0.0881378
1.35 0.0246512
1.36 0.137468
1.37 0.246438
1.38 0.348828
1.39 0.440956
1.4 0.519783
1.41 0.583858
1.42 0.628633
1.43 0.655266
1.44 0.661019
1.45 0.646192
1.46 0.612047
1.47 0.557302
1.48 0.486196
1.49 0.399128
1.5 0.299632
1.51 0.190797
1.52 0.0753566
1.53 -0.04262
1.54 -0.159863
1.55 -0.272878
1.56 -0.378822
1.57 -0.473862
1.58 -0.556981
1.59 -0.624589
1.6 -0.676429
1.61 -0.711611
1.62 -0.728683
1.63 -0.729887
1.64 -0.713932
1.65 -0.683783
1.66 -0.640693
1.67 -0.586283
1.68 -0.523774
1.69 -0.454621
1.7 -0.382032
1.71 -0.308086
1.72 -0.235186
1.73 -0.165017
1.74 -0.0998854
1.75 -0.0404851
1.76 0.011945
1.77 0.0567118
1.78 0.0943404
1.79 0.123905
1.8 0.147091
1.81 0.164186
1.82 0.176347
1.83 0.184996
1.84 0.191036
1.85 0.196069
1.86 0.20115
1.87 0.207394
1.88 0.215485
1.89 0.226355
1.9 0.23993
1.91 0.256509
1.92 0.275689
1.93 0.296871
1.94 0.319373
1.95 0.342048
1.96 0.363709
1.97 0.383042
1.98 0.398882
1.99 0.409391
2 0.414049
2.01 0.411002
2.02 0.399842
2.03 0.379997
2.04 0.350338
2.05 0.31189
2.06 0.263722
2.07 0.207195
2.08 0.142939
2.09 0.0716769
2.1 -0.00465905
2.11 -0.0851738
2.12 -0.167784
2.13 -0.250959
2.14 -0.332785
2.15 -0.411831
2.16 -0.48584
2.17 -0.553837
2.18 -0.614207
2.19 -0.66543
2.2 -0.70744
2.21 -0.737897
2.22 -0.757783
2.23 -0.766084
2.24 -0.762639
2.25 -0.748554
2.26 -0.722446
2.27 -0.686608
2.28 -0.640862
2.29 -0.586222
2.3 -0.52414
2.31 -0.454733
2.32 -0.380136
2.33 -0.301025
2.34 -0.218858
2.35 -0.134928
2.36 -0.0504854
2.37 0.0331593
2.38 0.114629
2.39 0.192671
2.4 0.266284
2.41 0.333634
2.42 0.394437
2.43 0.44686
2.44 0.49041
2.45 0.52447
2.46 0.547409
2.47 0.560056
2.48 0.560774
2.49 0.550339
2.5 0.528817
2.51 0.495793
2.52 0.45308
2.53 0.400259
2.54 0.339357
2.55 0.27141
2.56 0.197708
2.57 0.120364
2.58 0.0408169
2.59 -0.0387795
2.6 -0.116631
2.61 -0.190579
2.62 -0.25936
2.63 -0.320302
2.64 -0.37287
2.65 -0.415404
2.66 -0.446674
2.67 -0.467097
2.68 -0.47457
2.69 -0.470942
2.7 -0.455772
2.71 -0.429892
2.72 -0.395083
2.73 -0.351488
2.74 -0.30194
2.75 -0.247614
2.76 -0.190616
2.77 -0.132818
2.78 -0.0762675
2.79 -0.0225156
2.8 0.0265594
2.81 0.0696401
2.82 0.105989
2.83 0.133894
2.84 0.154022
2.85 0.165418
2.86 0.168783
2.87 0.164844
2.88 0.153844
2.89 0.137705
2.9 0.117168
2.91 0.0940388
2.92 0.0697175
2.93 0.0457956
2.94 0.0235553
2.95 0.00457205
2.96 -0.0102969
2.97 -0.0202353
2.98 -0.0242991
2.99 -0.0228864
3 -0.0153006
3.01 -0.00252494
3.02 0.0149724
3.03 0.0363981
3.04 0.0603396
3.05 0.0857594
3.06 0.111095
3.07 0.135015
3.08 0.155965
3.09 0.173068
3.1 0.184452
3.11 0.189933
3.12 0.188487
3.13 0.1796
3.14 0.163802
3.15 0.140146
3.16 0.110218
3.17 0.0741829
3.18 0.0330968
3.19 -0.011699
3.2 -0.0593507
3.21 -0.108188
3.22 -0.157049
3.23 -0.204591
3.24 -0.249863
3.25 -0.291441
3.26 -0.329066
3.27 -0.361767
3.28 -0.389411
3.29 -0.412121
3.3 -0.429536
3.31 -0.442707
3.32 -0.451742
3.33 -0.457646
3.34 -0.46123
3.35 -0.463261
3.36 -0.464732
3.37 -0.466402
3.38 -0.46896
3.39 -0.472875
3.4 -0.4786
3.41 -0.486013
3.42 -0.495169
3.43 -0.5055
3.44 -0.516438
3.45 -0.527078
3.46 -0.536518
3.47 -0.543339
3.48 -0.546562
3.49 -0.544895
3.5 -0.536814
3.51 -0.521945
3.52 -0.498213
3.53 -0.465944
3.54 -0.42424
3.55 -0.372704
3.56 -0.312337
3.57 -0.24224
3.58 -0.164506
3.59 -0.0796222
3.6 0.0109535
3.61 0.105357
3.62 0.202167
3.63 0.299162
3.64 0.394458
3.65 0.485962
3.66 0.572229
3.67 0.650483
3.68 0.720309
3.69 0.779555
3.7 0.827408
3.71 0.863718
3.72 0.886547
3.73 0.897554
3.74 0.895656
3.75 0.881982
3.76 0.857559
3.77 0.822365
3.78 0.778835
3.79 0.727312
3.8 0.669739
3.81 0.607465
3.82 0.541639
3.83 0.473905
3.84 0.405305
3.85 0.337036
3.86 0.269969
3.87 0.205062
3.88 0.142651
3.89 0.0835759
3.9 0.0278481
3.91 -0.0242674
3.92 -0.0724792
3.93 -0.117157
3.94 -0.157796
3.95 -0.194867
3.96 -0.228228
3.97 -0.257735
3.98 -0.283687
3.99 -0.30538
4 -0.323149
4.01 -0.336508
4.02 -0.345055
4.03 -0.348905
4.04 -0.346881
4.05 -0.339474
4.06 -0.325969
4.07 -0.306146
4.08 -0.280357
4.09 -0.247675
4.1 -0.209229
4.11 -0.164783
4.12 -0.114978
4.13 -0.0606997
4.14 -0.0022744
4.15 0.0588005
4.16 0.121705
4.17 0.185097
4.18 0.247822
4.19 0.308336
4.2 0.365709
4.21 0.418351
4.22 0.465334
4.23 0.505887
4.24 0.538456
4.25 0.563423
4.26 0.579436
4.27 0.58693
4.28 0.585989
4.29 0.576251
4.3 0.559165
4.31 0.53448
4.32 0.503705
4.33 0.467647
4.34 0.427152
4.35 0.383699
4.36 0.338066
4.37 0.29157
4.38 0.245122
4.39 0.199727
4.4 0.155988
4.41 0.11486
4.42 0.0765173
4.43 0.0413973
4.44 0.00975176
4.45 -0.0187277
4.46 -0.043678
4.47 -0.0658007
4.48 -0.0852086
4.49 -0.102296
4.5 -0.117617
4.51 -0.131343
4.52 -0.144079
4.53 -0.156048
4.54 -0.167532
4.55 -0.178709
4.56 -0.189613
4.57 -0.20025
4.58 -0.210465
4.59 -0.220036
4.6 -0.228733
4.61 -0.236049
4.62 -0.241795
4.63 -0.245409
4.64 -0.246574
4.65 -0.245056
4.66 -0.240232
4.67 -0.232312
4.68 -0.220811
4.69 -0.205921
4.7 -0.18777
4.71 -0.166283
4.72 -0.142129
4.73 -0.11538
4.74 -0.0867171
4.75 -0.0566189
4.76 -0.0256151
4.77 0.00565686
4.78 0.0366181
4.79 0.0667354
4.8 0.0955303
4.81 0.122454
4.82 0.14738
4.83 0.169743
4.84 0.189657
4.85 0.206973
4.86 0.221641
4.87 0.234026
4.88 0.244002
4.89 0.252129
4.9 0.258591
4.91 0.26372
4.92 0.267933
4.93 0.271446
4.94 0.274645
4.95 0.277736
4.96 0.280918
4.97 0.284286
4.98 0.287919
4.99 0.291745
5 0.295676
5.01 0.299527
5.02 0.303099
5.03 0.306045
5.04 0.308162
5.05 0.309056
5.06 0.308441
5.07 0.306123
5.08 0.301608
5.09 0.294984
5.1 0.285869
5.11 0.2743
5.12 0.260327
5.13 0.24377
5.14 0.225061
5.15 0.204137
5.16 0.181397
5.17 0.157116
5.18 0.131524
5.19 0.105086
5.2 0.0780541
5.21 0.0508272
5.22 0.0236976
5.23 -0.00300295
5.24 -0.029086
5.25 -0.0542358
5.26 -0.0783723
5.27 -0.101354
5.28 -0.123042
5.29 -0.143533
5.3 -0.162646
5.31 -0.180565
5.32 -0.197277
5.33 -0.212809
5.34 -0.227325
5.35 -0.240726
5.36 -0.253196
5.37 -0.264698
5.38 -0.275228
5.39 -0.284851
5.4 -0.293373
5.41 -0.300891
5.42 -0.30725
5.43 -0.312365
5.44 -0.316243
5.45 -0.3186
5.46 -0.319578
5.47 -0.31899
5.48 -0.316842
5.49 -0.313216
5.5 -0.307957
5.51 -0.301354
5.52 -0.293375
5.53 -0.284234
5.54 -0.274136
5.55 -0.26321
5.56 -0.251785
5.57 -0.240058
5.58 -0.228317
5.59 -0.216796
5.6 -0.205797
5.61 -0.195477
5.62 -0.186138
5.63 -0.177898
5.64 -0.170893
5.65 -0.165345
5.66 -0.161162
5.67 -0.158571
5.68 -0.157441
5.69 -0.157778
5.7 -0.159613
5.71 -0.162729
5.72 -0.167218
5.73 -0.172843
5.74 -0.179552
5.75 -0.187277
5.76 -0.195828
5.77 -0.205225
5.78 -0.215272
5.79 -0.225916
5.8 -0.23707
5.81 -0.248601
5.82 -0.260452
5.83 -0.272465
5.84 -0.284523
5.85 -0.296458
5.86 -0.308125
5.87 -0.319242
5.88 -0.329663
5.89 -0.339077
5.9 -0.347198
5.91 -0.353845
5.92 -0.358459
5.93 -0.361028
5.94 -0.361059
5.95 -0.358344
5.96 -0.352801
5.97 -0.343868
5.98 -0.331872
5.99 -0.316427
6 -0.297727
6.01 -0.275971
6.02 -0.251072
6.03 -0.223702
6.04 -0.193968
6.05 -0.162509
6.06 -0.129839
6.07 -0.0965251
6.08 -0.0632364
6.09 -0.0306682
6.1 0.000554285
6.11 0.0298382
6.12 0.056392
6.13 0.0800318
6.14 0.0998917
6.15 0.115993
6.16 0.128049
6.17 0.135773
6.18 0.139657
6.19 0.139358
6.2 0.135675
6.21 0.128898
6.22 0.119561
6.23 0.108509
6.24 0.0963073
6.25 0.0838994
6.26 0.0720491
6.27 0.0616549
6.28 0.0532847
6.29 0.048096
6.3 0.0462679
6.31 0.0485711
6.32 0.0554196
6.33 0.0667037
6.34 0.0832258
6.35 0.104175
6.36 0.129746
6.37 0.159434
6.38 0.192542
6.39 0.228789
6.4 0.267018
6.41 0.306589
6.42 0.346489
6.43 0.38586
6.44 0.423567
6.45 0.458949
6.46 0.49086
6.47 0.518647
6.48 0.541767
6.49 0.559103
6.5 0.570924
6.51 0.576228
6.52 0.575289
6.53 0.568106
6.54 0.554311
6.55 0.534883
6.56 0.509471
6.57 0.479079
6.58 0.444163
6.59 0.405164
6.6 0.363151
6.61 0.318486
6.62 0.272194
6.63 0.224908
6.64 0.177378
6.65 0.130237
6.66 0.0842348
6.67 0.0398064
6.68 -0.00250624
6.69 -0.042192
6.7 -0.0791855
6.71 -0.112763
6.72 -0.143189
6.73 -0.170139
6.74 -0.19354
6.75 -0.213698
6.76 -0.230146
6.77 -0.243536
6.78 -0.253744
6.79 -0.260993
6.8 -0.265657
6.81 -0.267598
6.82 -0.267412
6.83 -0.265109
6.84 -0.260986
6.85 -0.255329
6.86 -0.24818
6.87 -0.239931
6.88 -0.230657
6.89 -0.220593
6.9 -0.209921
6.91 -0.198757
6.92 -0.187307
6.93 -0.175686
6.94 -0.164046
6.95 -0.152504
6.96 -0.141205
6.97 -0.130226
6.98 -0.119718
6.99 -0.109746
7 -0.100391
7.01 -0.0917836
7.02 -0.0839004
7.03 -0.0768946
7.04 -0.0707234
7.05 -0.0654235
7.06 -0.0610451
7.07 -0.0574796
7.08 -0.0548075
7.09 -0.0528783
7.1 -0.0516524
7.11 -0.0510528
7.12 -0.0509199
7.13 -0.051183
7.14 -0.0516495
7.15 -0.0521835
7.16 -0.052604
7.17 -0.052767
7.18 -0.0524295
7.19 -0.0514858
7.2 -0.0497262
7.21 -0.0469751
7.22 -0.0431776
7.23 -0.0380179
7.24 -0.0315879
7.25 -0.0236948
7.26 -0.0143119
7.27 -0.00351594
7.28 0.00886476
7.29 0.0225536
7.3 0.0375822
7.31 0.0537552
7.32 0.0708625
7.33 0.0887721
7.34 0.107143
7.35 0.125746
7.36 0.144253
7.37 0.16238
7.38 0.17972
7.39 0.196062
7.4 0.210955
7.41 0.224175
7.42 0.235479
7.43 0.244426
7.44 0.25109
7.45 0.255
7.46 0.256265
7.47 0.254804
7.48 0.250439
7.49 0.243536
7.5 0.233869
7.51 0.221886
7.52 0.207735
7.53 0.191619
7.54 0.174021
7.55 0.155105
7.56 0.135397
7.57 0.115223
7.58 0.0949989
7.59 0.0750731
7.6 0.055905
7.61 0.0377375
7.62 0.0209261
7.63 0.00577251
7.64 -0.00767329
7.65 -0.0189417
7.66 -0.0282434
7.67 -0.0353693
7.68 -0.0403478
7.69 -0.0433899
7.7 -0.044341
7.71 -0.0436619
7.72 -0.041405
7.73 -0.0378736
7.74 -0.0333812
7.75 -0.0281371
7.76 -0.0225355
7.77 -0.016846
7.78 -0.0113927
7.79 -0.00642675
7.8 -0.00230715
7.81 0.00084493
7.82 0.0027062
7.83 0.00316895
7.84 0.00213884
7.85 -0.000626614
7.86 -0.00496432
7.87 -0.0110728
7.88 -0.0187826
7.89 -0.0280185
7.9 -0.0387619
7.91 -0.0506998
7.92 -0.0637909
7.93 -0.0777089
7.94 -0.0922444
7.95 -0.107141
7.96 -0.122108
7.97 -0.136844
7.98 -0.151078
7.99 -0.164521
8 -0.17683
8.01 -0.187874
8.02 -0.19718
8.03 -0.204729
8.04 -0.210241
8.05 -0.213495
8.06 -0.214583
8.07 -0.213066
8.08 -0.209263
8.09 -0.203024
8.1 -0.194411
8.11 -0.183718
8.12 -0.170791
8.13 -0.156164
8.14 -0.139929
8.15 -0.12242
8.16 -0.104002
8.17 -0.084934
8.18 -0.0656489
8.19 -0.0464753
8.2 -0.0277809
8.21 -0.00983794
8.22 0.00691904
8.23 0.0223972
8.24 0.0362446
8.25 0.0483731
8.26 0.0587473
8.27 0.0671496
8.28 0.0738609
8.29 0.0787896
8.3 0.082225
8.31 0.0843902
8.32 0.0854858
8.33 0.0859306
8.34 0.0860023
8.35 0.0861015
8.36 0.0865579
8.37 0.0877806
8.38 0.0899767
8.39 0.0935725
8.4 0.0986588
8.41 0.105414
8.42 0.114009
8.43 0.124257
8.44 0.136311
8.45 0.149806
8.46 0.164575
8.47 0.180315
8.48 0.196599
8.49 0.21304
8.5 0.229157
8.51 0.244481
8.52 0.258477
8.53 0.270852
8.54 0.280846
8.55 0.288421
8.56 0.29308
8.57 0.294575
8.58 0.293
8.59 0.287805
8.6 0.279539
8.61 0.268041
8.62 0.253613
8.63 0.23669
8.64 0.217361
8.65 0.196369
8.66 0.17402
8.67 0.150902
8.68 0.127507
8.69 0.104377
8.7 0.081932
8.71 0.0606904
8.72 0.0409845
8.73 0.023059
8.74 0.00734542
8.75 -0.00628997
8.76 -0.0175373
8.77 -0.0265973
8.78 -0.0335852
8.79 -0.0385518
8.8 -0.0419651
8.81 -0.0439493
8.82 -0.0449868
8.83 -0.0454086
8.84 -0.0456007
8.85 -0.0459272
8.86 -0.0467827
8.87 -0.0484285
8.88 -0.0511306
8.89 -0.0551539
8.9 -0.060487
8.91 -0.0673921
8.92 -0.0756704
8.93 -0.085308
8.94 -0.096167
8.95 -0.107942
8.96 -0.120472
8.97 -0.133343
8.98 -0.14625
8.99 -0.158792
9 -0.170674
9.01 -0.181361
9.02 -0.190689
9.03 -0.198232
9.04 -0.203707
9.05 -0.207048
9.06 -0.207734
9.07 -0.206019
9.08 -0.20161
9.09 -0.194581
9.1 -0.185115
9.11 -0.173027
9.12 -0.158825
9.13 -0.142494
9.14 -0.124391
9.15 -0.104829
9.16 -0.0839966
9.17 -0.0623597
9.18 -0.0401678
9.19 -0.0178093
9.2 0.0044078
9.21 0.0261013
9.22 0.0470387
9.23 0.0668141
9.24 0.0852286
9.25 0.102047
9.26 0.1169
9.27 0.129824
9.28 0.140377
9.29 0.148634
9.3 0.15445
9.31 0.157612
9.32 0.158354
9.33 0.156318
9.34 0.151823
9.35 0.144825
9.36 0.135328
9.37 0.123674
9.38 0.109688
9.39 0.0938242
9.4 0.076153
9.41 0.0568714
9.42 0.0363203
9.43 0.0145621
9.44 -0.00799522
9.45 -0.0311774
9.46 -0.0547183
9.47 -0.0783788
9.48 -0.101914
9.49 -0.125132
9.5 -0.14781
9.51 -0.169765
9.52 -0.190897
9.53 -0.210933
9.54 -0.229907
9.55 -0.247615
9.56 -0.264009
9.57 -0.279083
9.58 -0.29261
9.59 -0.304738
9.6 -0.315258
9.61 -0.324194
9.62 -0.331529
9.63 -0.337024
9.64 -0.34083
9.65 -0.34265
9.66 -0.342511
9.67 -0.34033
9.68 -0.335813
9.69 -0.329124
9.7 -0.31987
9.71 -0.308168
9.72 -0.293928
9.73 -0.27694
9.74 -0.257495
9.75 -0.235296
9.76 -0.210704
9.77 -0.183789
9.78 -0.154675
9.79 -0.123822
9.8 -0.0913341
9.81 -0.0577872
9.82 -0.0235425
9.83 0.0108912
9.84 0.0450366
9.85 0.0782476
9.86 0.110103
9.87 0.140006
9.88 0.167378
9.89 0.192016
9.9 0.21298
9.91 0.230452
9.92 0.243874
9.93 0.253073
9.94 0.258262
9.95 0.258841
9.96 0.255563
9.97 0.24826
9.98 0.237341
9.99 0.223333
10 0.206332
10.01 0.187216
10.02 0.166298
10.03 0.144239
10.04 0.121583
10.05 0.0988808
10.06 0.0766227
10.07 0.055334
10.08 0.0353856
10.09 0.017058
10.1 0.000795484
10.11 -0.0134825
10.12 -0.0254308
10.13 -0.0352026
10.14 -0.0428525
10.15 -0.0483584
10.16 -0.0521249
10.17 -0.0541542
10.18 -0.0548565
10.19 -0.0544527
10.2 -0.0531745
10.21 -0.0513444
10.22 -0.0491329
10.23 -0.046779
10.24 -0.0444229
10.25 -0.0421872
10.26 -0.0401181
10.27 -0.038261
10.28 -0.0365651
10.29 -0.0349803
10.3 -0.0334091
10.31 -0.0317513
10.32 -0.0298557
10.33 -0.0276344
10.34 -0.0249586
10.35 -0.0217288
10.36 -0.0179334
10.37 -0.0134465
10.38 -0.00837775
10.39 -0.00272226
10.4 0.00341836
10.41 0.00990559
10.42 0.0166172
10.43 0.0233557
10.44 0.0299424
10.45 0.0361845
10.46 0.0419401
10.47 0.0469718
10.48 0.0512551
10.49 0.0546222
10.5 0.0570741
10.51 0.0586469
10.52 0.0593193
10.53 0.0593116
10.54 0.0587115
10.55 0.0577713
10.56 0.0567115
10.57 0.0558131
10.58 0.0553073
10.59 0.0555201
10.6 0.0566464
10.61 0.0588851
10.62 0.0624938
10.63 0.0674199
10.64 0.0738844
10.65 0.0817039
10.66 0.0908061
10.67 0.101044
10.68 0.112064
10.69 0.12362
10.7 0.135261
10.71 0.146591
10.72 0.157099
10.73 0.166443
10.74 0.173933
10.75 0.179371
10.76 0.182264
10.77 0.182221
10.78 0.179273
10.79 0.172753
10.8 0.163096
10.81 0.150082
10.82 0.133866
10.83 0.114887
10.84 0.0930856
10.85 0.0692598
10.86 0.0436832
10.87 0.0169595
10.88 -0.010343
10.89 -0.0376381
10.9 -0.0643672
10.91 -0.0899153
10.92 -0.11377
10.93 -0.135576
10.94 -0.154636
10.95 -0.170991
10.96 -0.184091
10.97 -0.193947
10.98 -0.20057
10.99 -0.203662
11 -0.203742
11.01 -0.200613
11.02 -0.194733
11.03 -0.186363
11.04 -0.175646
11.05 -0.163151
11.06 -0.148992
11.07 -0.133649
11.08 -0.117388
11.09 -0.10047
11.1 -0.083195
11.11 -0.0657465
11.12 -0.0483231
11.13 -0.0310571
11.14 -0.0140743
11.15 0.00258238
11.16 0.0188027
11.17 0.0345975
11.18 0.049916
11.19 0.0647125
11.2 0.0790014
11.21 0.0926462
11.22 0.105665
11.23 0.117933
11.24 0.12933
11.25 0.139816
11.26 0.149076
11.27 0.157139
11.28 0.163747
11.29 0.16875
11.3 0.172127
11.31 0.173497
11.32 0.17305
11.33 0.170552
11.34 0.166048
11.35 0.159666
11.36 0.151266
11.37 0.14125
11.38 0.129635
11.39 0.116743
11.4 0.102867
11.41 0.0882524
11.42 0.0733068
11.43 0.0583458
11.44 0.0437316
11.45 0.0297609
11.46 0.0168371
11.47 0.00508905
11.48 -0.00510118
11.49 -0.0136765
11.5 -0.0205323
11.51 -0.0254949
11.52 -0.0287917
11.53 -0.0302859
11.54 -0.0302884
11.55 -0.0289473
11.56 -0.0264536
11.57 -0.0231706
11.58 -0.0193003
11.59 -0.015208
11.6 -0.0111594
11.61 -0.00746199
11.62 -0.0043069
11.63 -0.00201428
11.64 -0.000645497
11.65 -0.000363034
11.66 -0.00125327
11.67 -0.00321929
11.68 -0.0063825
11.69 -0.0104804
11.7 -0.0154483
11.71 -0.0210919
11.72 -0.0271767
11.73 -0.0335148
11.74 -0.0398417
11.75 -0.0459331
11.76 -0.0515575
11.77 -0.056566
11.78 -0.060677
11.79 -0.0638808
11.8 -0.0659869
11.81 -0.0669675
11.82 -0.0668509
11.83 -0.065522
11.84 -0.0631849
11.85 -0.0598067
11.86 -0.0555461
11.87 -0.0505313
11.88 -0.0448288
11.89 -0.0386442
11.9 -0.0320487
11.91 -0.025191
11.92 -0.0181667
11.93 -0.0110585
11.94 -0.00393907
11.95 0.00314143
11.96 0.0101534
11.97 0.0170805
11.98 0.0239106
11.99 0.030655
12 0.0373046
12.01 0.0438678
12.02 0.0503341
12.03 0.0566748
12.04 0.0628685
12.05 0.068831
12.06 0.0745106
12.07 0.079803
12.08 0.0845705
12.09 0.0887447
12.1 0.0920728
12.11 0.0945158
12.12 0.0958757
12.13 0.0959875
12.14 0.0948445
12.15 0.0921156
12.16 0.0879504
12.17 0.0821821
12.18 0.0748098
12.19 0.0659696
12.2 0.0555163
12.21 0.0437825
12.22 0.0307885
12.23 0.0167569
12.24 0.00192897
12.25 -0.0135368
12.26 -0.0293181
12.27 -0.0451948
12.28 -0.0608944
12.29 -0.0762034
12.3 -0.0908187
12.31 -0.104634
12.32 -0.117377
12.33 -0.128957
12.34 -0.139296
12.35 -0.148194
12.36 -0.155788
12.37 -0.161908
12.38 -0.166686
12.39 -0.170166
12.4 -0.172323
12.41 -0.173376
12.42 -0.173267
12.43 -0.172182
12.44 -0.170173
12.45 -0.167258
12.46 -0.163577
12.47 -0.159052
12.48 -0.153783
12.49 -0.147738
12.5 -0.140861
12.51 -0.133203
12.52 -0.124595
12.53 -0.115108
12.54 -0.104655
12.55 -0.093184
12.56 -0.0807733
12.57 -0.067284
12.58 -0.0529003
12.59 -0.037625
12.6 -0.0215699
12.61 -0.00492132
12.62 0.0122162
12.63 0.0295679
12.64 0.0469262
12.65 0.0640154
12.66 0.0806131
12.67 0.0963352
12.68 0.111041
12.69 0.124379
12.7 0.136144
12.71 0.14623
12.72 0.15425
12.73 0.16037
12.74 0.164327
12.75 0.166224
12.76 0.166172
12.77 0.164094
12.78 0.160398
12.79 0.155114
12.8 0.148609
12.81 0.141157
12.82 0.133021
12.83 0.124579
12.84 0.116122
12.85 0.107967
12.86 0.100375
12.87 0.0936595
