# xPDFsuite Configuration #
[PDF]
wavelength = 0.1
dataformat = QA
inputfile = B3_Bronze-3nm_ss_026.chi
backgroundfile = B3_Li-bkg_DD155_two_ss_att.chi
mode = xray
bgscale = 0.985
composition = Ti O2
outputtype = gr
qmaxinst = 23.5
qmin = 0.1
qmax = 23.0
rmax = 40.0
rmin = 0.0
rstep = 0.01
rpoly = 0.9

[Misc]
inputdir = E:/Beamtime/PETRA-III_September-2019/BeamData/processed/Run1/B3/integration_20210218/chi/chi_w_sigmas/chi_scaled
savedir = E:/Beamtime/PETRA-III_September-2019/BeamData/processed/Run1/B3/integration_20210218
backgroundfilefull = E:/Beamtime/PETRA-III_September-2019/BeamData/processed/Run1/B3/integration_20210218/chi/chi_w_sigmas/chi_scaled/B3_Li-bkg_DD155_two_ss_att.chi

#### start data
#S 1
#L r($\AA$)  G($\AA^{-2}$)
0 0
0.01 0.0040792
0.02 0.00794169
0.03 0.0113682
0.04 0.014163
0.05 0.0162324
0.06 0.0173415
0.07 0.0175635
0.08 0.0168003
0.09 0.0151209
0.1 0.0126502
0.11 0.0094385
0.12 0.00574858
0.13 0.00172948
0.14 -0.0023745
0.15 -0.00635953
0.16 -0.00996702
0.17 -0.0130561
0.18 -0.0153924
0.19 -0.0168817
0.2 -0.0174567
0.21 -0.0169907
0.22 -0.0156189
0.23 -0.0132939
0.24 -0.0102041
0.25 -0.00648857
0.26 -0.00231262
0.27 0.00207591
0.28 0.00646226
0.29 0.0106084
0.3 0.0143009
0.31 0.0172846
0.32 0.0194669
0.33 0.0205706
0.34 0.0206009
0.35 0.0194543
0.36 0.0170639
0.37 0.0135664
0.38 0.00885813
0.39 0.00318288
0.4 -0.00339715
0.41 -0.0107368
0.42 -0.0186245
0.43 -0.0269529
0.44 -0.035487
0.45 -0.0440758
0.46 -0.0525352
0.47 -0.0607309
0.48 -0.0684416
0.49 -0.0755902
0.5 -0.0819831
0.51 -0.0874751
0.52 -0.0919863
0.53 -0.0951978
0.54 -0.0971228
0.55 -0.0974494
0.56 -0.0960204
0.57 -0.092723
0.58 -0.087083
0.59 -0.0791937
0.6 -0.0685904
0.61 -0.0552033
0.62 -0.0389563
0.63 -0.0194274
0.64 0.00303248
0.65 0.0287505
0.66 0.0573905
0.67 0.0887298
0.68 0.122622
0.69 0.158359
0.7 0.195585
0.71 0.233483
0.72 0.271347
0.73 0.308221
0.74 0.343375
0.75 0.37555
0.76 0.404071
0.77 0.427989
0.78 0.446159
0.79 0.45849
0.8 0.463468
0.81 0.461501
0.82 0.452063
0.83 0.43494
0.84 0.411043
0.85 0.379824
0.86 0.342911
0.87 0.300784
0.88 0.254562
0.89 0.205673
0.9 0.155191
0.91 0.104707
0.92 0.05554
0.93 0.00910899
0.94 -0.0337076
0.95 -0.071169
0.96 -0.103233
0.97 -0.128838
0.98 -0.147841
0.99 -0.160618
1 -0.166736
1.01 -0.167709
1.02 -0.163927
1.03 -0.15683
1.04 -0.147772
1.05 -0.13824
1.06 -0.129792
1.07 -0.124155
1.08 -0.122735
1.09 -0.126661
1.1 -0.13768
1.11 -0.155694
1.12 -0.182041
1.13 -0.216178
1.14 -0.257772
1.15 -0.306516
1.16 -0.360506
1.17 -0.41877
1.18 -0.478966
1.19 -0.539113
1.2 -0.596577
1.21 -0.649387
1.22 -0.694204
1.23 -0.729456
1.24 -0.752796
1.25 -0.761713
1.26 -0.756292
1.27 -0.733261
1.28 -0.694271
1.29 -0.63858
1.3 -0.566611
1.31 -0.480972
1.32 -0.381563
1.33 -0.2726
1.34 -0.156069
1.35 -0.0353816
1.36 0.0861263
1.37 0.204527
1.38 0.316803
1.39 0.419115
1.4 0.508193
1.41 0.582385
1.42 0.636882
1.43 0.672696
1.44 0.686854
1.45 0.679505
1.46 0.651836
1.47 0.602325
1.48 0.535313
1.49 0.451043
1.5 0.353117
1.51 0.244692
1.52 0.128453
1.53 0.00869865
1.54 -0.111313
1.55 -0.227912
1.56 -0.338147
1.57 -0.438133
1.58 -0.526697
1.59 -0.600246
1.6 -0.658441
1.61 -0.700385
1.62 -0.724674
1.63 -0.733543
1.64 -0.72584
1.65 -0.704571
1.66 -0.671099
1.67 -0.627205
1.68 -0.576114
1.69 -0.519508
1.7 -0.46053
1.71 -0.401324
1.72 -0.344299
1.73 -0.290954
1.74 -0.243576
1.75 -0.202523
1.76 -0.168793
1.77 -0.142695
1.78 -0.123332
1.79 -0.111021
1.8 -0.103705
1.81 -0.100457
1.82 -0.0995212
1.83 -0.0991789
1.84 -0.0974671
1.85 -0.0928862
1.86 -0.083623
1.87 -0.0683168
1.88 -0.0463712
1.89 -0.0160991
1.9 0.0216304
1.91 0.0674203
1.92 0.120332
1.93 0.179165
1.94 0.24301
1.95 0.309557
1.96 0.37706
1.97 0.443136
1.98 0.505717
1.99 0.561831
2 0.610146
2.01 0.647556
2.02 0.672911
2.03 0.684894
2.04 0.681192
2.05 0.66295
2.06 0.628025
2.07 0.578101
2.08 0.513641
2.09 0.435058
2.1 0.34529
2.11 0.244853
2.12 0.137093
2.13 0.0240614
2.14 -0.091595
2.15 -0.20721
2.16 -0.319851
2.17 -0.427282
2.18 -0.526984
2.19 -0.61637
2.2 -0.694678
2.21 -0.758353
2.22 -0.808091
2.23 -0.842111
2.24 -0.859763
2.25 -0.862301
2.26 -0.847454
2.27 -0.818339
2.28 -0.774554
2.29 -0.717497
2.3 -0.649287
2.31 -0.57009
2.32 -0.483126
2.33 -0.38945
2.34 -0.291289
2.35 -0.190606
2.36 -0.0892872
2.37 0.0107635
2.38 0.107576
2.39 0.199452
2.4 0.285094
2.41 0.362146
2.42 0.430439
2.43 0.487789
2.44 0.533861
2.45 0.568155
2.46 0.589028
2.47 0.597801
2.48 0.592917
2.49 0.575631
2.5 0.546339
2.51 0.504986
2.52 0.453797
2.53 0.392732
2.54 0.324161
2.55 0.249437
2.56 0.170222
2.57 0.0887377
2.58 0.00685702
2.59 -0.0732811
2.6 -0.149686
2.61 -0.220026
2.62 -0.28319
2.63 -0.33618
2.64 -0.378761
2.65 -0.409201
2.66 -0.426315
2.67 -0.430796
2.68 -0.420401
2.69 -0.397401
2.7 -0.361417
2.71 -0.31351
2.72 -0.255763
2.73 -0.18847
2.74 -0.114853
2.75 -0.0363481
2.76 0.0445859
2.77 0.125789
2.78 0.20474
2.79 0.279682
2.8 0.348265
2.81 0.408867
2.82 0.460547
2.83 0.500997
2.84 0.531005
2.85 0.549113
2.86 0.556024
2.87 0.55247
2.88 0.538351
2.89 0.51607
2.9 0.486139
2.91 0.450786
2.92 0.411681
2.93 0.370572
2.94 0.329372
2.95 0.289874
2.96 0.253528
2.97 0.221567
2.98 0.195417
2.99 0.175092
3 0.161778
3.01 0.15478
3.02 0.15394
3.03 0.158789
3.04 0.167875
3.05 0.180492
3.06 0.194831
3.07 0.209556
3.08 0.222973
3.09 0.233843
3.1 0.240173
3.11 0.241299
3.12 0.23591
3.13 0.223109
3.14 0.20312
3.15 0.174592
3.16 0.138948
3.17 0.0960863
3.18 0.0469275
3.19 -0.0071474
3.2 -0.0654323
3.21 -0.125952
3.22 -0.187448
3.23 -0.248267
3.24 -0.307125
3.25 -0.362203
3.26 -0.412858
3.27 -0.457649
3.28 -0.496039
3.29 -0.527854
3.3 -0.552168
3.31 -0.570053
3.32 -0.581181
3.33 -0.586607
3.34 -0.5872
3.35 -0.583624
3.36 -0.577395
3.37 -0.569352
3.38 -0.560767
3.39 -0.552566
3.4 -0.545753
3.41 -0.540808
3.42 -0.538467
3.43 -0.538718
3.44 -0.541555
3.45 -0.54678
3.46 -0.55363
3.47 -0.561487
3.48 -0.569257
3.49 -0.575902
3.5 -0.58006
3.51 -0.580873
3.52 -0.576519
3.53 -0.56652
3.54 -0.549689
3.55 -0.525072
3.56 -0.49292
3.57 -0.451769
3.58 -0.402903
3.59 -0.346117
3.6 -0.282105
3.61 -0.212273
3.62 -0.137023
3.63 -0.0585092
3.64 0.0220709
3.65 0.102915
3.66 0.182503
3.67 0.258743
3.68 0.33055
3.69 0.396042
3.7 0.454034
3.71 0.503912
3.72 0.543727
3.73 0.574267
3.74 0.594243
3.75 0.604143
3.76 0.604489
3.77 0.594826
3.78 0.577051
3.79 0.551093
3.8 0.518505
3.81 0.480341
3.82 0.437366
3.83 0.391169
3.84 0.342455
3.85 0.292441
3.86 0.241927
3.87 0.19173
3.88 0.142392
3.89 0.0945577
3.9 0.0484553
3.91 0.00435355
3.92 -0.0374851
3.93 -0.0772276
3.94 -0.114547
3.95 -0.149719
3.96 -0.182657
3.97 -0.213272
3.98 -0.241731
3.99 -0.267568
4 -0.29093
4.01 -0.311429
4.02 -0.328683
4.03 -0.342653
4.04 -0.352344
4.05 -0.357952
4.06 -0.358768
4.07 -0.354418
4.08 -0.345024
4.09 -0.329571
4.1 -0.308846
4.11 -0.282413
4.12 -0.250614
4.13 -0.214082
4.14 -0.172772
4.15 -0.127987
4.16 -0.0801819
4.17 -0.0304585
4.18 0.0201933
4.19 0.0706668
4.2 0.119951
4.21 0.166834
4.22 0.210387
4.23 0.249865
4.24 0.283999
4.25 0.312862
4.26 0.335372
4.27 0.351735
4.28 0.361958
4.29 0.36576
4.3 0.364217
4.31 0.35721
4.32 0.345924
4.33 0.331055
4.34 0.31338
4.35 0.294052
4.36 0.27385
4.37 0.25377
4.38 0.234576
4.39 0.217084
4.4 0.201638
4.41 0.188994
4.42 0.17906
4.43 0.172024
4.44 0.167831
4.45 0.165978
4.46 0.166369
4.47 0.168178
4.48 0.170918
4.49 0.173871
4.5 0.176423
4.51 0.177754
4.52 0.177459
4.53 0.174911
4.54 0.169717
4.55 0.16183
4.56 0.150739
4.57 0.136953
4.58 0.120427
4.59 0.101627
4.6 0.0811134
4.61 0.0593613
4.62 0.0372002
4.63 0.0153344
4.64 -0.00543747
4.65 -0.0244728
4.66 -0.0407821
4.67 -0.0541113
4.68 -0.0635743
4.69 -0.0689781
4.7 -0.0701402
4.71 -0.0665388
4.72 -0.0587586
4.73 -0.0464469
4.74 -0.0302531
4.75 -0.0105396
4.76 0.0123918
4.77 0.0376685
4.78 0.0649695
4.79 0.0934867
4.8 0.1227
4.81 0.152041
4.82 0.181055
4.83 0.20926
4.84 0.236431
4.85 0.262332
4.86 0.286799
4.87 0.309953
4.88 0.331668
4.89 0.352257
4.9 0.371828
4.91 0.390594
4.92 0.408815
4.93 0.426625
4.94 0.444231
4.95 0.461706
4.96 0.479068
4.97 0.496266
4.98 0.513086
4.99 0.52933
5 0.544609
5.01 0.558482
5.02 0.570602
5.03 0.580118
5.04 0.586855
5.05 0.589991
5.06 0.589103
5.07 0.583951
5.08 0.573593
5.09 0.558443
5.1 0.537813
5.11 0.511951
5.12 0.481092
5.13 0.445013
5.14 0.404713
5.15 0.360211
5.16 0.312427
5.17 0.262027
5.18 0.209652
5.19 0.15627
5.2 0.102602
5.21 0.0494842
5.22 -0.00239889
5.23 -0.0522221
5.24 -0.0996789
5.25 -0.143938
5.26 -0.184959
5.27 -0.222446
5.28 -0.256131
5.29 -0.286418
5.3 -0.312954
5.31 -0.336399
5.32 -0.356901
5.33 -0.374778
5.34 -0.390628
5.35 -0.404589
5.36 -0.417295
5.37 -0.429003
5.38 -0.440033
5.39 -0.450654
5.4 -0.460978
5.41 -0.471121
5.42 -0.481053
5.43 -0.490676
5.44 -0.499866
5.45 -0.508297
5.46 -0.515813
5.47 -0.522033
5.48 -0.526661
5.49 -0.52952
5.5 -0.530076
5.51 -0.528434
5.52 -0.524216
5.53 -0.517449
5.54 -0.508235
5.55 -0.49641
5.56 -0.482485
5.57 -0.466493
5.58 -0.448913
5.59 -0.430143
5.6 -0.410579
5.61 -0.390763
5.62 -0.371175
5.63 -0.352295
5.64 -0.334537
5.65 -0.318438
5.66 -0.304132
5.67 -0.292148
5.68 -0.282477
5.69 -0.275256
5.7 -0.270643
5.71 -0.268306
5.72 -0.26841
5.73 -0.270483
5.74 -0.274337
5.75 -0.279692
5.76 -0.28609
5.77 -0.293287
5.78 -0.300824
5.79 -0.30839
5.8 -0.315632
5.81 -0.322322
5.82 -0.328088
5.83 -0.332855
5.84 -0.336401
5.85 -0.338599
5.86 -0.339493
5.87 -0.338825
5.88 -0.33681
5.89 -0.333332
5.9 -0.328426
5.91 -0.322198
5.92 -0.314466
5.93 -0.305435
5.94 -0.294956
5.95 -0.283033
5.96 -0.269688
5.97 -0.254671
5.98 -0.238136
5.99 -0.219851
6 -0.199842
6.01 -0.178133
6.02 -0.154553
6.03 -0.12938
6.04 -0.102538
6.05 -0.0743081
6.06 -0.0449219
6.07 -0.0146222
6.08 0.0161368
6.09 0.0469577
6.1 0.0773305
6.11 0.106768
6.12 0.134592
6.13 0.160467
6.14 0.183547
6.15 0.203585
6.16 0.220096
6.17 0.232505
6.18 0.240992
6.19 0.244827
6.2 0.244513
6.21 0.239992
6.22 0.231426
6.23 0.219561
6.24 0.20449
6.25 0.18728
6.26 0.16852
6.27 0.149109
6.28 0.129893
6.29 0.111947
6.3 0.0959849
6.31 0.0829907
6.32 0.0738058
6.33 0.0687567
6.34 0.0691219
6.35 0.0745167
6.36 0.0856293
6.37 0.102387
6.38 0.124341
6.39 0.151817
6.4 0.183569
6.41 0.219361
6.42 0.258164
6.43 0.29901
6.44 0.340962
6.45 0.382841
6.46 0.423508
6.47 0.461871
6.48 0.497028
6.49 0.527574
6.5 0.553262
6.51 0.572756
6.52 0.585903
6.53 0.592377
6.54 0.591422
6.55 0.58386
6.56 0.568993
6.57 0.547786
6.58 0.5206
6.59 0.487765
6.6 0.450548
6.61 0.409216
6.62 0.365074
6.63 0.31887
6.64 0.271512
6.65 0.2239
6.66 0.176901
6.67 0.131194
6.68 0.0874581
6.69 0.0463484
6.7 0.00801994
6.71 -0.026717
6.72 -0.0581255
6.73 -0.0858795
6.74 -0.10995
6.75 -0.130719
6.76 -0.147813
6.77 -0.161987
6.78 -0.173232
6.79 -0.181887
6.8 -0.188388
6.81 -0.192751
6.82 -0.195542
6.83 -0.196853
6.84 -0.196957
6.85 -0.196076
6.86 -0.194245
6.87 -0.191691
6.88 -0.18841
6.89 -0.18448
6.9 -0.179943
6.91 -0.174748
6.92 -0.168983
6.93 -0.162597
6.94 -0.155651
6.95 -0.148195
6.96 -0.140256
6.97 -0.131979
6.98 -0.123449
6.99 -0.114839
7 -0.106307
7.01 -0.0980696
7.02 -0.0902812
7.03 -0.0832214
7.04 -0.077029
7.05 -0.0718938
7.06 -0.0680515
7.07 -0.0654864
7.08 -0.0644793
7.09 -0.0649045
7.1 -0.066808
7.11 -0.0701708
7.12 -0.0747466
7.13 -0.0805302
7.14 -0.0871511
7.15 -0.0944078
7.16 -0.101984
7.17 -0.109564
7.18 -0.116762
7.19 -0.123292
7.2 -0.128782
7.21 -0.13289
7.22 -0.135472
7.23 -0.136002
7.24 -0.134585
7.25 -0.130909
7.26 -0.124927
7.27 -0.116766
7.28 -0.106174
7.29 -0.0935908
7.3 -0.0789843
7.31 -0.0626595
7.32 -0.0449305
7.33 -0.0259748
7.34 -0.00626924
7.35 0.013915
7.36 0.0341761
7.37 0.054191
7.38 0.0735475
7.39 0.0920242
7.4 0.109215
7.41 0.124937
7.42 0.139008
7.43 0.1511
7.44 0.161326
7.45 0.169365
7.46 0.175369
7.47 0.179332
7.48 0.181189
7.49 0.181254
7.5 0.179416
7.51 0.176025
7.52 0.171202
7.53 0.165099
7.54 0.158035
7.55 0.150103
7.56 0.141621
7.57 0.132764
7.58 0.123752
7.59 0.114777
7.6 0.106055
7.61 0.0977247
7.62 0.0899584
7.63 0.0829113
7.64 0.076626
7.65 0.0713395
7.66 0.0669811
7.67 0.0636775
7.68 0.0614509
7.69 0.0602284
7.7 0.0601373
7.71 0.0609712
7.72 0.0627466
7.73 0.0653348
7.74 0.0685822
7.75 0.0724077
7.76 0.0765702
7.77 0.0809154
7.78 0.0852158
7.79 0.0892745
7.8 0.0928033
7.81 0.0956469
7.82 0.0974894
7.83 0.0981499
7.84 0.097457
7.85 0.0950659
7.86 0.0910229
7.87 0.0849829
7.88 0.0769896
7.89 0.0669941
7.9 0.0548348
7.91 0.0407903
7.92 0.0247042
7.93 0.00690034
7.94 -0.0124779
7.95 -0.0332626
7.96 -0.0550588
7.97 -0.0776793
7.98 -0.100701
7.99 -0.123811
8 -0.14662
8.01 -0.168836
8.02 -0.189989
8.03 -0.209883
8.04 -0.228178
8.05 -0.244569
8.06 -0.259047
8.07 -0.271141
8.08 -0.281085
8.09 -0.288701
8.1 -0.29402
8.11 -0.29731
8.12 -0.298414
8.13 -0.297848
8.14 -0.295699
8.15 -0.292288
8.16 -0.28796
8.17 -0.28294
8.18 -0.277619
8.19 -0.272255
8.2 -0.267134
8.21 -0.262448
8.22 -0.258455
8.23 -0.25518
8.24 -0.25276
8.25 -0.251146
8.26 -0.250245
8.27 -0.249969
8.28 -0.250043
8.29 -0.250233
8.3 -0.250202
8.31 -0.24963
8.32 -0.248045
8.33 -0.245198
8.34 -0.240525
8.35 -0.233787
8.36 -0.224664
8.37 -0.212674
8.38 -0.197924
8.39 -0.179871
8.4 -0.158758
8.41 -0.134527
8.42 -0.107145
8.43 -0.0771159
8.44 -0.0443722
8.45 -0.00959527
8.46 0.0268783
8.47 0.0645351
8.48 0.102757
8.49 0.140963
8.5 0.178538
8.51 0.214862
8.52 0.249267
8.53 0.281427
8.54 0.310395
8.55 0.336196
8.56 0.358239
8.57 0.376261
8.58 0.390418
8.59 0.40005
8.6 0.405856
8.61 0.407637
8.62 0.405749
8.63 0.400708
8.64 0.392565
8.65 0.382206
8.66 0.369925
8.67 0.35638
8.68 0.342127
8.69 0.327705
8.7 0.313629
8.71 0.300414
8.72 0.288446
8.73 0.277996
8.74 0.269492
8.75 0.262841
8.76 0.258324
8.77 0.255746
8.78 0.254972
8.79 0.255888
8.8 0.258019
8.81 0.261127
8.82 0.264688
8.83 0.268281
8.84 0.271371
8.85 0.27357
8.86 0.27425
8.87 0.273125
8.88 0.269786
8.89 0.263791
8.9 0.255187
8.91 0.243415
8.92 0.228787
8.93 0.211196
8.94 0.190716
8.95 0.167811
8.96 0.142446
8.97 0.115335
8.98 0.0867888
8.99 0.05735
9 0.0275713
9.01 -0.00195611
9.02 -0.0307111
9.03 -0.058094
9.04 -0.083553
9.05 -0.10679
9.06 -0.126992
9.07 -0.14424
9.08 -0.157981
9.09 -0.168106
9.1 -0.174708
9.11 -0.177323
9.12 -0.176558
9.13 -0.172216
9.14 -0.164714
9.15 -0.154435
9.16 -0.141499
9.17 -0.126636
9.18 -0.110086
9.19 -0.0924478
9.2 -0.074176
9.21 -0.0557488
9.22 -0.037611
9.23 -0.0202444
9.24 -0.00399063
9.25 0.0108386
9.26 0.0238264
9.27 0.0349729
9.28 0.0438602
9.29 0.0505986
9.3 0.0551133
9.31 0.0573137
9.32 0.0575103
9.33 0.0555508
9.34 0.0518348
9.35 0.0464774
9.36 0.0396617
9.37 0.0317355
9.38 0.0227902
9.39 0.0131825
9.4 0.00307993
9.41 -0.00730841
9.42 -0.0178028
9.43 -0.0282561
9.44 -0.0385636
9.45 -0.0486404
9.46 -0.0584385
9.47 -0.0679684
9.48 -0.0772065
9.49 -0.0862363
9.5 -0.0950989
9.51 -0.103879
9.52 -0.112654
9.53 -0.121518
9.54 -0.130534
9.55 -0.139777
9.56 -0.149286
9.57 -0.159067
9.58 -0.169141
9.59 -0.179429
9.6 -0.18988
9.61 -0.20037
9.62 -0.210772
9.63 -0.220886
9.64 -0.230563
9.65 -0.239532
9.66 -0.247605
9.67 -0.25458
9.68 -0.260114
9.69 -0.264176
9.7 -0.266372
9.71 -0.266691
9.72 -0.264998
9.73 -0.261077
9.74 -0.255136
9.75 -0.246922
9.76 -0.236737
9.77 -0.224649
9.78 -0.21078
9.79 -0.195525
9.8 -0.178992
9.81 -0.161653
9.82 -0.143804
9.83 -0.125843
9.84 -0.108125
9.85 -0.0911194
9.86 -0.0751065
9.87 -0.060481
9.88 -0.0476005
9.89 -0.0365572
9.9 -0.0279087
9.91 -0.0214688
9.92 -0.0175166
9.93 -0.0160692
9.94 -0.0169212
9.95 -0.0203079
9.96 -0.0257149
9.97 -0.0331231
9.98 -0.0422011
9.99 -0.0525886
10 -0.0640786
10.01 -0.0761852
10.02 -0.0886146
10.03 -0.100976
10.04 -0.112966
10.05 -0.12418
10.06 -0.134449
10.07 -0.143413
10.08 -0.150937
10.09 -0.15691
10.1 -0.161071
10.11 -0.163587
10.12 -0.164249
10.13 -0.163232
10.14 -0.160607
10.15 -0.156371
10.16 -0.150826
10.17 -0.143954
10.18 -0.136032
10.19 -0.127186
10.2 -0.11753
10.21 -0.107276
10.22 -0.0964699
10.23 -0.0852734
10.24 -0.0737481
10.25 -0.0619469
10.26 -0.0499323
10.27 -0.0376968
10.28 -0.0252756
10.29 -0.0126586
10.3 0.000161566
10.31 0.0131672
10.32 0.0263799
10.33 0.039751
10.34 0.0532557
10.35 0.0668306
10.36 0.0803985
10.37 0.0938387
10.38 0.107046
10.39 0.119857
10.4 0.132106
10.41 0.143677
10.42 0.154276
10.43 0.163873
10.44 0.172218
10.45 0.179206
10.46 0.184806
10.47 0.188764
10.48 0.191269
10.49 0.19218
10.5 0.191641
10.51 0.189795
10.52 0.186685
10.53 0.182659
10.54 0.177854
10.55 0.172599
10.56 0.16716
10.57 0.161853
10.58 0.156935
10.59 0.152744
10.6 0.14948
10.61 0.147342
10.62 0.146586
10.63 0.147157
10.64 0.149279
10.65 0.152776
10.66 0.15759
10.67 0.163604
10.68 0.170488
10.69 0.178058
10.7 0.185898
10.71 0.193675
10.72 0.200956
10.73 0.207427
10.74 0.212523
10.75 0.216044
10.76 0.217578
10.77 0.216787
10.78 0.213673
10.79 0.207682
10.8 0.199149
10.81 0.187885
10.82 0.174003
10.83 0.157856
10.84 0.139386
10.85 0.119248
10.86 0.0976646
10.87 0.075137
10.88 0.0521392
10.89 0.0291675
10.9 0.00669377
10.91 -0.0147534
10.92 -0.0347313
10.93 -0.0529287
10.94 -0.068733
10.95 -0.0821731
10.96 -0.0927593
10.97 -0.100493
10.98 -0.105376
10.99 -0.107142
11 -0.10625
11.01 -0.102533
11.02 -0.0964105
11.03 -0.0881344
11.04 -0.0778743
11.05 -0.0661622
11.06 -0.0531743
11.07 -0.0393814
11.08 -0.0250901
11.09 -0.0106352
11.1 0.00368836
11.11 0.0175682
11.12 0.0308088
11.13 0.0432066
11.14 0.0545509
11.15 0.0648372
11.16 0.073814
11.17 0.0815812
11.18 0.0880543
11.19 0.0931969
11.2 0.09714
11.21 0.0997164
11.22 0.101132
11.23 0.10133
11.24 0.100327
11.25 0.0982391
11.26 0.0948963
11.27 0.0904878
11.28 0.0849205
11.29 0.0782067
11.3 0.070425
11.31 0.0614286
11.32 0.0514073
11.33 0.0402979
11.34 0.028192
11.35 0.0152123
11.36 0.00137086
11.37 -0.013086
11.38 -0.0280575
11.39 -0.0433158
11.4 -0.0586552
11.41 -0.0738152
11.42 -0.0885794
11.43 -0.102636
11.44 -0.115756
11.45 -0.127726
11.46 -0.138178
11.47 -0.1471
11.48 -0.154115
11.49 -0.159232
11.5 -0.162365
11.51 -0.16333
11.52 -0.162381
11.53 -0.159333
11.54 -0.154502
11.55 -0.148007
11.56 -0.139992
11.57 -0.13084
11.58 -0.120684
11.59 -0.10993
11.6 -0.0988359
11.61 -0.0877201
11.62 -0.0768439
11.63 -0.0665418
11.64 -0.0569814
11.65 -0.048395
11.66 -0.0409733
11.67 -0.0347143
11.68 -0.029881
11.69 -0.0262922
11.7 -0.0240135
11.71 -0.0229649
11.72 -0.0229537
11.73 -0.0239806
11.74 -0.0257316
11.75 -0.0280939
11.76 -0.0308485
11.77 -0.033799
11.78 -0.0367587
11.79 -0.039559
11.8 -0.0420315
11.81 -0.0440492
11.82 -0.0455391
11.83 -0.0463533
11.84 -0.0465366
11.85 -0.0460021
11.86 -0.0447942
11.87 -0.0429575
11.88 -0.0404817
11.89 -0.0375019
11.9 -0.0340281
11.91 -0.0301675
11.92 -0.0259867
11.93 -0.0215311
11.94 -0.0168838
11.95 -0.0120667
11.96 -0.00712722
11.97 -0.00208285
11.98 0.00306268
11.99 0.00829819
12 0.0136425
12.01 0.0190939
12.02 0.0246627
12.03 0.0303572
12.04 0.0361599
12.05 0.0420671
12.06 0.0480339
12.07 0.0540166
12.08 0.059942
12.09 0.0657403
12.1 0.0712788
12.11 0.0764769
12.12 0.0811944
12.13 0.0852843
12.14 0.0886844
12.15 0.0911349
12.16 0.0926584
12.17 0.0930811
12.18 0.0923259
12.19 0.090428
12.2 0.0871872
12.21 0.0828013
12.22 0.0772023
12.23 0.0705
12.24 0.062848
12.25 0.0542756
12.26 0.0450605
12.27 0.0353148
12.28 0.0252656
12.29 0.0151041
12.3 0.00504465
12.31 -0.00474268
12.32 -0.0140442
12.33 -0.0227201
12.34 -0.03066
12.35 -0.0376759
12.36 -0.0438091
12.37 -0.048908
12.38 -0.0530397
12.39 -0.0562261
12.4 -0.0584537
12.41 -0.0598992
12.42 -0.0605588
12.43 -0.0606123
12.44 -0.0601548
12.45 -0.0592846
12.46 -0.0581445
12.47 -0.0568027
12.48 -0.0553638
12.49 -0.0538831
12.5 -0.0524048
12.51 -0.0509457
12.52 -0.0495053
12.53 -0.0480572
12.54 -0.0465618
12.55 -0.0449587
12.56 -0.0432018
12.57 -0.0411929
12.58 -0.038905
12.59 -0.0362682
12.6 -0.033241
12.61 -0.0298389
12.62 -0.0260076
12.63 -0.0218414
12.64 -0.0173684
12.65 -0.0126864
12.66 -0.00790791
12.67 -0.00317129
12.68 0.00138395
12.69 0.0055819
12.7 0.0092593
12.71 0.0122982
12.72 0.0144536
12.73 0.0157224
12.74 0.0159119
12.75 0.0150091
12.76 0.0130277
12.77 0.00988237
12.78 0.00578543
12.79 0.000747047
12.8 -0.00500074
12.81 -0.0112622
12.82 -0.0178101
12.83 -0.0243596
12.84 -0.030608
12.85 -0.036271
12.86 -0.0410737
12.87 -0.0446431
12.88 -0.0468776
12.89 -0.0473571
12.9 -0.0460678
