# xPDFsuite Configuration #
[PDF]
wavelength = 0.1
dataformat = QA
inputfile = B3_Bronze-3nm_ss_015.chi
backgroundfile = B3_Li-bkg_DD155_two_ss_att.chi
mode = xray
bgscale = 0.985
composition = Ti O2
outputtype = gr
qmaxinst = 23.5
qmin = 0.1
qmax = 23.0
rmax = 40.0
rmin = 0.0
rstep = 0.01
rpoly = 0.9

[Misc]
inputdir = E:/Beamtime/PETRA-III_September-2019/BeamData/processed/Run1/B3/integration_20210218/chi/chi_w_sigmas/chi_scaled
savedir = E:/Beamtime/PETRA-III_September-2019/BeamData/processed/Run1/B3/integration_20210218
backgroundfilefull = E:/Beamtime/PETRA-III_September-2019/BeamData/processed/Run1/B3/integration_20210218/chi/chi_w_sigmas/chi_scaled/B3_Li-bkg_DD155_two_ss_att.chi

#### start data
#S 1
#L r($\AA$)  G($\AA^{-2}$)
0 0
0.01 0.00613328
0.02 0.0119428
0.03 0.0171007
0.04 0.0213143
0.05 0.024443
0.06 0.0261349
0.07 0.0264981
0.08 0.0253844
0.09 0.0228951
0.1 0.0192156
0.11 0.0144177
0.12 0.00889384
0.13 0.00286385
0.14 -0.00330795
0.15 -0.00931731
0.16 -0.0147801
0.17 -0.0194838
0.18 -0.0230794
0.19 -0.0254249
0.2 -0.0264184
0.21 -0.0258711
0.22 -0.0239818
0.23 -0.0206801
0.24 -0.0162445
0.25 -0.0108808
0.26 -0.00483323
0.27 0.00153261
0.28 0.00790263
0.29 0.0139296
0.3 0.0193064
0.31 0.0236708
0.32 0.0268986
0.33 0.028612
0.34 0.0288402
0.35 0.0274669
0.36 0.0244433
0.37 0.0199942
0.38 0.0140535
0.39 0.00699555
0.4 -0.001023
0.41 -0.00973138
0.42 -0.0188209
0.43 -0.0280329
0.44 -0.0370813
0.45 -0.0457148
0.46 -0.0536937
0.47 -0.060905
0.48 -0.0670587
0.49 -0.0722037
0.5 -0.0761808
0.51 -0.0789678
0.52 -0.080622
0.53 -0.080981
0.54 -0.0802218
0.55 -0.0782246
0.56 -0.0750061
0.57 -0.0705781
0.58 -0.0647109
0.59 -0.0574927
0.6 -0.0486427
0.61 -0.0380829
0.62 -0.0257102
0.63 -0.0111578
0.64 0.00544412
0.65 0.0244564
0.66 0.0457812
0.67 0.0693908
0.68 0.0953673
0.69 0.123256
0.7 0.152985
0.71 0.183968
0.72 0.215729
0.73 0.247606
0.74 0.278918
0.75 0.308721
0.76 0.336294
0.77 0.360767
0.78 0.381055
0.79 0.396853
0.8 0.40672
0.81 0.410741
0.82 0.40825
0.83 0.398803
0.84 0.383017
0.85 0.360108
0.86 0.33141
0.87 0.297152
0.88 0.258186
0.89 0.215807
0.9 0.170768
0.91 0.124685
0.92 0.0787146
0.93 0.0342519
0.94 -0.00772007
0.95 -0.0455516
0.96 -0.0789177
0.97 -0.106695
0.98 -0.128522
0.99 -0.144559
1 -0.154177
1.01 -0.158648
1.02 -0.158147
1.03 -0.15391
1.04 -0.147152
1.05 -0.139134
1.06 -0.131415
1.07 -0.125564
1.08 -0.123017
1.09 -0.124937
1.1 -0.133053
1.11 -0.147463
1.12 -0.169546
1.13 -0.198962
1.14 -0.235527
1.15 -0.279104
1.16 -0.327966
1.17 -0.381321
1.18 -0.436961
1.19 -0.493033
1.2 -0.547047
1.21 -0.597037
1.22 -0.639804
1.23 -0.673713
1.24 -0.696428
1.25 -0.705424
1.26 -0.700659
1.27 -0.678864
1.28 -0.641529
1.29 -0.587842
1.3 -0.518133
1.31 -0.434905
1.32 -0.337999
1.33 -0.231556
1.34 -0.117529
1.35 0.000694062
1.36 0.11977
1.37 0.235748
1.38 0.345566
1.39 0.445323
1.4 0.531673
1.41 0.602907
1.42 0.65409
1.43 0.686215
1.44 0.696211
1.45 0.684195
1.46 0.651356
1.47 0.596116
1.48 0.522919
1.49 0.432024
1.5 0.327151
1.51 0.211576
1.52 0.0881302
1.53 -0.0387209
1.54 -0.165516
1.55 -0.288401
1.56 -0.404248
1.57 -0.508898
1.58 -0.601117
1.59 -0.677012
1.6 -0.736205
1.61 -0.777691
1.62 -0.799889
1.63 -0.805183
1.64 -0.792229
1.65 -0.764243
1.66 -0.722642
1.67 -0.669284
1.68 -0.607681
1.69 -0.539583
1.7 -0.468469
1.71 -0.396684
1.72 -0.326906
1.73 -0.260887
1.74 -0.201218
1.75 -0.14846
1.76 -0.103873
1.77 -0.0680145
1.78 -0.0400637
1.79 -0.0207157
1.8 -0.00782433
1.81 -0.000673225
1.82 0.00243452
1.83 0.00332005
1.84 0.00370144
1.85 0.00538526
1.86 0.0101076
1.87 0.0193689
1.88 0.0339614
1.89 0.0555597
1.9 0.0836312
1.91 0.118854
1.92 0.160525
1.93 0.207647
1.94 0.259484
1.95 0.313959
1.96 0.369522
1.97 0.423993
1.98 0.475469
1.99 0.521232
2 0.560019
2.01 0.588987
2.02 0.607056
2.03 0.613012
2.04 0.604754
2.05 0.583333
2.06 0.546836
2.07 0.496835
2.08 0.433808
2.09 0.358219
2.1 0.272783
2.11 0.178099
2.12 0.0772434
2.13 -0.0278369
2.14 -0.134646
2.15 -0.240786
2.16 -0.343467
2.17 -0.440741
2.18 -0.530301
2.19 -0.609825
2.2 -0.678731
2.21 -0.733794
2.22 -0.775811
2.23 -0.803238
2.24 -0.815604
2.25 -0.814162
2.26 -0.796964
2.27 -0.766934
2.28 -0.723801
2.29 -0.668908
2.3 -0.604208
2.31 -0.529931
2.32 -0.448953
2.33 -0.362254
2.34 -0.271814
2.35 -0.179355
2.36 -0.0865554
2.37 0.0049514
2.38 0.0934339
2.39 0.177427
2.4 0.255811
2.41 0.326512
2.42 0.389399
2.43 0.442526
2.44 0.485581
2.45 0.518094
2.46 0.538544
2.47 0.548069
2.48 0.545191
2.49 0.53097
2.5 0.505688
2.51 0.469185
2.52 0.423436
2.53 0.368283
2.54 0.305854
2.55 0.237324
2.56 0.164149
2.57 0.0883984
2.58 0.0117175
2.59 -0.0638507
2.6 -0.136462
2.61 -0.203929
2.62 -0.265131
2.63 -0.317272
2.64 -0.360017
2.65 -0.391702
2.66 -0.411152
2.67 -0.418937
2.68 -0.412919
2.69 -0.395162
2.7 -0.365284
2.71 -0.324258
2.72 -0.274028
2.73 -0.214884
2.74 -0.149862
2.75 -0.0803458
2.76 -0.00867946
2.77 0.0630816
2.78 0.132505
2.79 0.197939
2.8 0.257136
2.81 0.308571
2.82 0.351384
2.83 0.383413
2.84 0.405482
2.85 0.416284
2.86 0.416593
2.87 0.407206
2.88 0.388204
2.89 0.361953
2.9 0.329155
2.91 0.29204
2.92 0.252319
2.93 0.211887
2.94 0.172536
2.95 0.136225
2.96 0.104288
2.97 0.0779477
2.98 0.058657
2.99 0.046238
3 0.0419306
3.01 0.0448258
3.02 0.0546791
3.03 0.0709065
3.04 0.0918551
3.05 0.116719
3.06 0.143481
3.07 0.170658
3.08 0.196379
3.09 0.219279
3.1 0.237154
3.11 0.249267
3.12 0.254156
3.13 0.250805
3.14 0.239433
3.15 0.218479
3.16 0.189474
3.17 0.152219
3.18 0.107642
3.19 0.0572148
3.2 0.00154394
3.21 -0.0571961
3.22 -0.117762
3.23 -0.178396
3.24 -0.237699
3.25 -0.293832
3.26 -0.345985
3.27 -0.392671
3.28 -0.433249
3.29 -0.467462
3.3 -0.494325
3.31 -0.514835
3.32 -0.52862
3.33 -0.536691
3.34 -0.539891
3.35 -0.538858
3.36 -0.53511
3.37 -0.529476
3.38 -0.523241
3.39 -0.51734
3.4 -0.512792
3.41 -0.510091
3.42 -0.509989
3.43 -0.512481
3.44 -0.517569
3.45 -0.52505
3.46 -0.534152
3.47 -0.544232
3.48 -0.55417
3.49 -0.562886
3.5 -0.568959
3.51 -0.57149
3.52 -0.568555
3.53 -0.559634
3.54 -0.543449
3.55 -0.518949
3.56 -0.486364
3.57 -0.444056
3.58 -0.393342
3.59 -0.333913
3.6 -0.266417
3.61 -0.192302
3.62 -0.111839
3.63 -0.0273311
3.64 0.0600545
3.65 0.148434
3.66 0.236164
3.67 0.321106
3.68 0.40197
3.69 0.47675
3.7 0.54407
3.71 0.603145
3.72 0.651784
3.73 0.690631
3.74 0.718137
3.75 0.73462
3.76 0.740463
3.77 0.734911
3.78 0.719899
3.79 0.695079
3.8 0.662022
3.81 0.621759
3.82 0.574905
3.83 0.52329
3.84 0.467495
3.85 0.408986
3.86 0.34869
3.87 0.287538
3.88 0.226392
3.89 0.166032
3.9 0.107008
3.91 0.0498218
3.92 -0.00498253
3.93 -0.057349
3.94 -0.106631
3.95 -0.152946
3.96 -0.195982
3.97 -0.235425
3.98 -0.271435
3.99 -0.303234
4 -0.331102
4.01 -0.35454
4.02 -0.373158
4.03 -0.387097
4.04 -0.395226
4.05 -0.398066
4.06 -0.394942
4.07 -0.385651
4.08 -0.370534
4.09 -0.348653
4.1 -0.321062
4.11 -0.287448
4.12 -0.248329
4.13 -0.204473
4.14 -0.15598
4.15 -0.104239
4.16 -0.0498127
4.17 0.00613676
4.18 0.0625911
4.19 0.118357
4.2 0.172473
4.21 0.223666
4.22 0.271036
4.23 0.313851
4.24 0.350798
4.25 0.382013
4.26 0.406351
4.27 0.424038
4.28 0.435062
4.29 0.439062
4.3 0.437145
4.31 0.429064
4.32 0.416011
4.33 0.398621
4.34 0.377571
4.35 0.354065
4.36 0.328734
4.37 0.302657
4.38 0.276572
4.39 0.251288
4.4 0.227286
4.41 0.205292
4.42 0.185415
4.43 0.167934
4.44 0.152952
4.45 0.140153
4.46 0.129627
4.47 0.120743
4.48 0.113221
4.49 0.106563
4.5 0.100267
4.51 0.093839
4.52 0.0868612
4.53 0.0789178
4.54 0.0696962
4.55 0.0591053
4.56 0.0468457
4.57 0.0331869
4.58 0.018147
4.59 0.00205145
4.6 -0.0147168
4.61 -0.0317273
4.62 -0.0484519
4.63 -0.0643025
4.64 -0.0787143
4.65 -0.0912326
4.66 -0.101064
4.67 -0.108114
4.68 -0.111677
4.69 -0.111672
4.7 -0.108004
4.71 -0.100284
4.72 -0.0890522
4.73 -0.0740555
4.74 -0.0558726
4.75 -0.0348366
4.76 -0.011239
4.77 0.014179
4.78 0.0411003
4.79 0.0688372
4.8 0.096922
4.81 0.124828
4.82 0.15217
4.83 0.178457
4.84 0.203492
4.85 0.227017
4.86 0.248822
4.87 0.269009
4.88 0.287338
4.89 0.304102
4.9 0.319319
4.91 0.333123
4.92 0.345782
4.93 0.357295
4.94 0.367966
4.95 0.377841
4.96 0.387002
4.97 0.395528
4.98 0.403283
4.99 0.410292
5 0.416348
5.01 0.421261
5.02 0.424893
5.03 0.426768
5.04 0.426857
5.05 0.424707
5.06 0.420114
5.07 0.412974
5.08 0.402769
5.09 0.38977
5.1 0.373605
5.11 0.354441
5.12 0.33243
5.13 0.307464
5.14 0.280123
5.15 0.250429
5.16 0.218906
5.17 0.185927
5.18 0.151847
5.19 0.117199
5.2 0.082364
5.21 0.0477886
5.22 0.0138285
5.23 -0.0190964
5.24 -0.0508337
5.25 -0.0809736
5.26 -0.109506
5.27 -0.136295
5.28 -0.16122
5.29 -0.184485
5.3 -0.205921
5.31 -0.225843
5.32 -0.24431
5.33 -0.261445
5.34 -0.277509
5.35 -0.292495
5.36 -0.306668
5.37 -0.320065
5.38 -0.332746
5.39 -0.344792
5.4 -0.356079
5.41 -0.366662
5.42 -0.376392
5.43 -0.385147
5.44 -0.392873
5.45 -0.399242
5.46 -0.404302
5.47 -0.407793
5.48 -0.409629
5.49 -0.409826
5.5 -0.408116
5.51 -0.40476
5.52 -0.399637
5.53 -0.392932
5.54 -0.384841
5.55 -0.375436
5.56 -0.365111
5.57 -0.354039
5.58 -0.342569
5.59 -0.330984
5.6 -0.31961
5.61 -0.30869
5.62 -0.298551
5.63 -0.289368
5.64 -0.281308
5.65 -0.274601
5.66 -0.269169
5.67 -0.265206
5.68 -0.262551
5.69 -0.261155
5.7 -0.260954
5.71 -0.261682
5.72 -0.263274
5.73 -0.265443
5.74 -0.268023
5.75 -0.270816
5.76 -0.27364
5.77 -0.27633
5.78 -0.278776
5.79 -0.280878
5.8 -0.282567
5.81 -0.283859
5.82 -0.284696
5.83 -0.28517
5.84 -0.285302
5.85 -0.285151
5.86 -0.284787
5.87 -0.284227
5.88 -0.28352
5.89 -0.282646
5.9 -0.281563
5.91 -0.28021
5.92 -0.278406
5.93 -0.276051
5.94 -0.272889
5.95 -0.268695
5.96 -0.263285
5.97 -0.256207
5.98 -0.247431
5.99 -0.236528
6 -0.223381
6.01 -0.207913
6.02 -0.189777
6.03 -0.169291
6.04 -0.146252
6.05 -0.120996
6.06 -0.093788
6.07 -0.0648596
6.08 -0.0348271
6.09 -0.00410019
6.1 0.0266559
6.11 0.0568573
6.12 0.0857283
6.13 0.112804
6.14 0.137153
6.15 0.158428
6.16 0.176073
6.17 0.189437
6.18 0.198677
6.19 0.202998
6.2 0.202917
6.21 0.198361
6.22 0.189496
6.23 0.177111
6.24 0.161294
6.25 0.143172
6.26 0.123362
6.27 0.102798
6.28 0.0823681
6.29 0.0631777
6.3 0.0459772
6.31 0.0317767
6.32 0.0214454
6.33 0.0153246
6.34 0.0147263
6.35 0.0192675
6.36 0.029662
6.37 0.0458515
6.38 0.0673923
6.39 0.0946508
6.4 0.126373
6.41 0.16236
6.42 0.201597
6.43 0.243124
6.44 0.286058
6.45 0.329195
6.46 0.371443
6.47 0.411704
6.48 0.449072
6.49 0.482168
6.5 0.510691
6.51 0.533318
6.52 0.549841
6.53 0.559895
6.54 0.562679
6.55 0.558944
6.56 0.547928
6.57 0.530519
6.58 0.507008
6.59 0.477628
6.6 0.443602
6.61 0.405081
6.62 0.363345
6.63 0.319078
6.64 0.273122
6.65 0.226405
6.66 0.179702
6.67 0.133766
6.68 0.0892683
6.69 0.0468889
6.7 0.00687348
6.71 -0.0299627
6.72 -0.0637541
6.73 -0.0941149
6.74 -0.12092
6.75 -0.144458
6.76 -0.164256
6.77 -0.180986
6.78 -0.194545
6.79 -0.20519
6.8 -0.213316
6.81 -0.218819
6.82 -0.222289
6.83 -0.223739
6.84 -0.223438
6.85 -0.221627
6.86 -0.218283
6.87 -0.213726
6.88 -0.207926
6.89 -0.201023
6.9 -0.193114
6.91 -0.184158
6.92 -0.174343
6.93 -0.16364
6.94 -0.152188
6.95 -0.14009
6.96 -0.127425
6.97 -0.114401
6.98 -0.101155
6.99 -0.0879097
7 -0.0748684
7.01 -0.0623094
7.02 -0.0504054
7.03 -0.0395069
7.04 -0.0297654
7.05 -0.0214079
7.06 -0.0147209
7.07 -0.00967306
7.08 -0.00662017
7.09 -0.00540548
7.1 -0.00609957
7.11 -0.00870161
7.12 -0.0129183
7.13 -0.0187926
7.14 -0.0258786
7.15 -0.0339698
7.16 -0.0427176
7.17 -0.0517382
7.18 -0.0606348
7.19 -0.0690315
7.2 -0.0765163
7.21 -0.0826842
7.22 -0.0873332
7.23 -0.089877
7.24 -0.0903789
7.25 -0.0884758
7.26 -0.084088
7.27 -0.077329
7.28 -0.0679085
7.29 -0.0562988
7.3 -0.0424598
7.31 -0.0267318
7.32 -0.00947037
7.33 0.00910782
7.34 0.0284601
7.35 0.0482539
7.36 0.0680192
7.37 0.0873747
7.38 0.105819
7.39 0.123104
7.4 0.138739
7.41 0.152524
7.42 0.164251
7.43 0.173546
7.44 0.180574
7.45 0.184981
7.46 0.186986
7.47 0.186621
7.48 0.183863
7.49 0.179116
7.5 0.172324
7.51 0.163923
7.52 0.154108
7.53 0.143111
7.54 0.131302
7.55 0.11886
7.56 0.106125
7.57 0.0933184
7.58 0.0806903
7.59 0.0684104
7.6 0.0567379
7.61 0.0457497
7.62 0.0356125
7.63 0.026448
7.64 0.0182439
7.65 0.0112259
7.66 0.00526022
7.67 0.000454233
7.68 -0.00319541
7.69 -0.00577795
7.7 -0.00715642
7.71 -0.00753318
7.72 -0.00685644
7.73 -0.005212
7.74 -0.00271293
7.75 0.000659519
7.76 0.00469473
7.77 0.00934913
7.78 0.0144595
7.79 0.0198766
7.8 0.0254486
7.81 0.0309841
7.82 0.0362804
7.83 0.0411341
7.84 0.04536
7.85 0.0486562
7.86 0.0509356
7.87 0.051863
7.88 0.051346
7.89 0.0492408
7.9 0.0452863
7.91 0.0396088
7.92 0.0319336
7.93 0.0224452
7.94 0.0111681
7.95 -0.00187259
7.96 -0.016339
7.97 -0.0321962
7.98 -0.0490279
7.99 -0.0665825
8 -0.084515
8.01 -0.102465
8.02 -0.120026
8.03 -0.136876
8.04 -0.152647
8.05 -0.166964
8.06 -0.179704
8.07 -0.190354
8.08 -0.199029
8.09 -0.205487
8.1 -0.209692
8.11 -0.211864
8.12 -0.211805
8.13 -0.210026
8.14 -0.206614
8.15 -0.201921
8.16 -0.19633
8.17 -0.190136
8.18 -0.183789
8.19 -0.177639
8.2 -0.17205
8.21 -0.167274
8.22 -0.163698
8.23 -0.161343
8.24 -0.160445
8.25 -0.160958
8.26 -0.162778
8.27 -0.165862
8.28 -0.169821
8.29 -0.174423
8.3 -0.179216
8.31 -0.183789
8.32 -0.18758
8.33 -0.190211
8.34 -0.191009
8.35 -0.189625
8.36 -0.185646
8.37 -0.178482
8.38 -0.168212
8.39 -0.1542
8.4 -0.13671
8.41 -0.11568
8.42 -0.0910888
8.43 -0.0635306
8.44 -0.0329718
8.45 -0.000216302
8.46 0.0343118
8.47 0.0699846
8.48 0.106093
8.49 0.141926
8.5 0.176815
8.51 0.210058
8.52 0.240934
8.53 0.269137
8.54 0.293665
8.55 0.314646
8.56 0.331528
8.57 0.344149
8.58 0.352785
8.59 0.356909
8.6 0.357359
8.61 0.354093
8.62 0.347617
8.63 0.338541
8.64 0.327125
8.65 0.314239
8.66 0.300318
8.67 0.286021
8.68 0.271862
8.69 0.258431
8.7 0.246056
8.71 0.235219
8.72 0.226121
8.73 0.218878
8.74 0.213749
8.75 0.210445
8.76 0.209053
8.77 0.209212
8.78 0.210641
8.79 0.213038
8.8 0.215913
8.81 0.218866
8.82 0.221425
8.83 0.223174
8.84 0.223595
8.85 0.222477
8.86 0.219248
8.87 0.213852
8.88 0.206039
8.89 0.195582
8.9 0.182713
8.91 0.167126
8.92 0.149268
8.93 0.129217
8.94 0.107214
8.95 0.0837265
8.96 0.0589354
8.97 0.0334156
8.98 0.0075213
8.99 -0.0182769
9 -0.0436062
9.01 -0.0679064
9.02 -0.0909405
9.03 -0.11225
9.04 -0.131506
9.05 -0.148598
9.06 -0.162947
9.07 -0.174767
9.08 -0.183693
9.09 -0.189732
9.1 -0.193015
9.11 -0.193229
9.12 -0.190862
9.13 -0.185767
9.14 -0.178243
9.15 -0.168554
9.16 -0.156735
9.17 -0.143305
9.18 -0.128374
9.19 -0.112356
9.2 -0.0955587
9.21 -0.0782866
9.22 -0.0609084
9.23 -0.0437592
9.24 -0.0271602
9.25 -0.0114002
9.26 0.0031309
9.27 0.0163194
9.28 0.0277272
9.29 0.037307
9.3 0.0448679
9.31 0.050168
9.32 0.0533732
9.33 0.0541548
9.34 0.0528006
9.35 0.0492993
9.36 0.0437134
9.37 0.0363948
9.38 0.0273105
9.39 0.016921
9.4 0.00540429
9.41 -0.00694803
9.42 -0.0198038
9.43 -0.0329172
9.44 -0.0459811
9.45 -0.0587519
9.46 -0.0709917
9.47 -0.0825817
9.48 -0.0932639
9.49 -0.103087
9.5 -0.111942
9.51 -0.119866
9.52 -0.126975
9.53 -0.133283
9.54 -0.13904
9.55 -0.144364
9.56 -0.149471
9.57 -0.154544
9.58 -0.159788
9.59 -0.165337
9.6 -0.171355
9.61 -0.177908
9.62 -0.185013
9.63 -0.192697
9.64 -0.200804
9.65 -0.209227
9.66 -0.21772
9.67 -0.226037
9.68 -0.233808
9.69 -0.240767
9.7 -0.246416
9.71 -0.250471
9.72 -0.252577
9.73 -0.252231
9.74 -0.249429
9.75 -0.243579
9.76 -0.234825
9.77 -0.223023
9.78 -0.208067
9.79 -0.190391
9.8 -0.16985
9.81 -0.147106
9.82 -0.122455
9.83 -0.0964004
9.84 -0.0695801
9.85 -0.0425667
9.86 -0.0160279
9.87 0.00939032
9.88 0.0329888
9.89 0.0543996
9.9 0.0726522
9.91 0.0877599
9.92 0.0991229
9.93 0.106507
9.94 0.110083
9.95 0.109271
9.96 0.104812
9.97 0.0965929
9.98 0.0850781
9.99 0.0708368
10 0.0540999
10.01 0.0357547
10.02 0.0162412
10.03 -0.00373376
10.04 -0.0236036
10.05 -0.0427012
10.06 -0.0606271
10.07 -0.0767846
10.08 -0.0908859
10.09 -0.102718
10.1 -0.11187
10.11 -0.118591
10.12 -0.122605
10.13 -0.124226
10.14 -0.123635
10.15 -0.120952
10.16 -0.116698
10.17 -0.111021
10.18 -0.104408
10.19 -0.0971617
10.2 -0.0896029
10.21 -0.0820228
10.22 -0.0746702
10.23 -0.0676956
10.24 -0.0612107
10.25 -0.0552771
10.26 -0.0498173
10.27 -0.0448075
10.28 -0.040055
10.29 -0.035407
10.3 -0.0306446
10.31 -0.0255894
10.32 -0.0199606
10.33 -0.0136514
10.34 -0.00646919
10.35 0.00170218
10.36 0.0108269
10.37 0.0210455
10.38 0.0321207
10.39 0.0439907
10.4 0.0564265
10.41 0.0691678
10.42 0.0819242
10.43 0.0943853
10.44 0.106199
10.45 0.117041
10.46 0.126693
10.47 0.134712
10.48 0.14112
10.49 0.145609
10.5 0.148207
10.51 0.148993
10.52 0.147899
10.53 0.145338
10.54 0.141411
10.55 0.136551
10.56 0.131116
10.57 0.125525
10.58 0.120195
10.59 0.115608
10.6 0.112117
10.61 0.110053
10.62 0.109835
10.63 0.111453
10.64 0.115282
10.65 0.121125
10.66 0.128945
10.67 0.138619
10.68 0.149688
10.69 0.16193
10.7 0.17474
10.71 0.187651
10.72 0.200042
10.73 0.211443
10.74 0.221055
10.75 0.228561
10.76 0.233369
10.77 0.234988
10.78 0.233408
10.79 0.227853
10.8 0.218789
10.81 0.205956
10.82 0.189526
10.83 0.169997
10.84 0.147314
10.85 0.122385
10.86 0.0955332
10.87 0.0674508
10.88 0.0387805
10.89 0.0101916
10.9 -0.0177047
10.91 -0.0442277
10.92 -0.0688334
10.93 -0.0911578
10.94 -0.110477
10.95 -0.126887
10.96 -0.139855
10.97 -0.149464
10.98 -0.155794
10.99 -0.158641
11 -0.158607
11.01 -0.155616
11.02 -0.15021
11.03 -0.142736
11.04 -0.133468
11.05 -0.122976
11.06 -0.111511
11.07 -0.0995275
11.08 -0.0873185
11.09 -0.0751793
11.1 -0.0633073
11.11 -0.0519206
11.12 -0.0410816
11.13 -0.0308601
11.14 -0.0212922
11.15 -0.0122869
11.16 -0.00386417
11.17 0.00412026
11.18 0.0117208
11.19 0.0190107
11.2 0.0260712
11.21 0.0329045
11.22 0.0395424
11.23 0.045939
11.24 0.0520153
11.25 0.0577044
11.26 0.0627826
11.27 0.0671784
11.28 0.0706592
11.29 0.0730355
11.3 0.0742224
11.31 0.0738612
11.32 0.0720427
11.33 0.0685388
11.34 0.0633555
11.35 0.0565942
11.36 0.0481463
11.37 0.0383763
11.38 0.0273532
11.39 0.015415
11.4 0.00287722
11.41 -0.00992133
11.42 -0.0225847
11.43 -0.0346915
11.44 -0.0458631
11.45 -0.0557736
11.46 -0.0639278
11.47 -0.0702629
11.48 -0.0743131
11.49 -0.076093
11.5 -0.075529
11.51 -0.072466
11.52 -0.0672694
11.53 -0.0598427
11.54 -0.0506538
11.55 -0.0399655
11.56 -0.0281169
11.57 -0.0156078
11.58 -0.00282366
11.59 0.00975167
11.6 0.0217019
11.61 0.0325544
11.62 0.0420849
11.63 0.0497464
11.64 0.0555275
11.65 0.0591651
11.66 0.0605304
11.67 0.059821
11.68 0.0567882
11.69 0.051905
11.7 0.0452402
11.71 0.0370928
11.72 0.0278572
11.73 0.017757
11.74 0.00726804
11.75 -0.00329907
11.76 -0.0135763
11.77 -0.0233031
11.78 -0.0320925
11.79 -0.0398595
11.8 -0.0463381
11.81 -0.0514597
11.82 -0.0552416
11.83 -0.0575362
11.84 -0.0585988
11.85 -0.0584058
11.86 -0.057176
11.87 -0.0550932
11.88 -0.0522844
11.89 -0.0490194
11.9 -0.0454346
11.91 -0.0417264
11.92 -0.0380255
11.93 -0.0344559
11.94 -0.0310699
11.95 -0.0279271
11.96 -0.0250016
11.97 -0.0222573
11.98 -0.0196247
11.99 -0.0170015
12 -0.0142651
12.01 -0.0113006
12.02 -0.00798805
12.03 -0.0041882
12.04 0.000133396
12.05 0.00512483
12.06 0.0107404
12.07 0.0170014
12.08 0.023872
12.09 0.0312154
12.1 0.0389607
12.11 0.0468907
12.12 0.0548323
12.13 0.0625492
12.14 0.0698573
12.15 0.0764207
12.16 0.0821227
12.17 0.086689
12.18 0.0899274
12.19 0.0917967
12.2 0.0919622
12.21 0.0906017
12.22 0.0875544
12.23 0.0828973
12.24 0.0767888
12.25 0.0691821
12.26 0.0604383
12.27 0.0506371
12.28 0.0400592
12.29 0.0289478
12.3 0.0175207
12.31 0.0060467
12.32 -0.00524693
12.33 -0.0161527
12.34 -0.0265148
12.35 -0.0361174
12.36 -0.0449493
12.37 -0.0528415
12.38 -0.0598296
12.39 -0.0659182
12.4 -0.0710807
12.41 -0.0754802
12.42 -0.0791055
12.43 -0.0821269
12.44 -0.084631
12.45 -0.0867039
12.46 -0.0884778
12.47 -0.089998
12.48 -0.0913529
12.49 -0.0925719
12.5 -0.0936634
12.51 -0.0946278
12.52 -0.0954037
12.53 -0.0959531
12.54 -0.0961907
12.55 -0.096012
12.56 -0.0953697
12.57 -0.094083
12.58 -0.0921543
12.59 -0.0894699
12.6 -0.0859744
12.61 -0.0817126
12.62 -0.0765682
12.63 -0.07071
12.64 -0.0641466
12.65 -0.0570036
12.66 -0.0494394
12.67 -0.0415796
12.68 -0.0336414
12.69 -0.0258086
12.7 -0.0182898
12.71 -0.0112444
12.72 -0.0049371
12.73 0.000576913
12.74 0.00508102
12.75 0.00852413
12.76 0.0108899
12.77 0.0120569
12.78 0.0122118
12.79 0.0113241
12.8 0.00959773
12.81 0.00719863
12.82 0.00430055
