# xPDFsuite Configuration #
[PDF]
wavelength = 0.1
dataformat = QA
inputfile = B3_Bronze-3nm_ss_021.chi
backgroundfile = B3_Li-bkg_DD155_two_ss_att.chi
mode = xray
bgscale = 0.985
composition = Ti O2
outputtype = gr
qmaxinst = 23.5
qmin = 0.1
qmax = 23.0
rmax = 40.0
rmin = 0.0
rstep = 0.01
rpoly = 0.9

[Misc]
inputdir = E:/Beamtime/PETRA-III_September-2019/BeamData/processed/Run1/B3/integration_20210218/chi/chi_w_sigmas/chi_scaled
savedir = E:/Beamtime/PETRA-III_September-2019/BeamData/processed/Run1/B3/integration_20210218
backgroundfilefull = E:/Beamtime/PETRA-III_September-2019/BeamData/processed/Run1/B3/integration_20210218/chi/chi_w_sigmas/chi_scaled/B3_Li-bkg_DD155_two_ss_att.chi

#### start data
#S 1
#L r($\AA$)  G($\AA^{-2}$)
0 0
0.01 0.00390905
0.02 0.00761139
0.03 0.0108979
0.04 0.0135815
0.05 0.0155728
0.06 0.0166472
0.07 0.0168739
0.08 0.0161586
0.09 0.0145663
0.1 0.0122154
0.11 0.00915248
0.12 0.00562811
0.13 0.00178328
0.14 -0.00214907
0.15 -0.00597434
0.16 -0.00944622
0.17 -0.0124289
0.18 -0.0146981
0.19 -0.0161623
0.2 -0.0167556
0.21 -0.0163554
0.22 -0.0150884
0.23 -0.0129075
0.24 -0.00999074
0.25 -0.00646954
0.26 -0.00250017
0.27 0.00168021
0.28 0.00586735
0.29 0.00983214
0.3 0.0133694
0.31 0.0162332
0.32 0.0183321
0.33 0.0193981
0.34 0.0194332
0.35 0.0183355
0.36 0.0160382
0.37 0.0126716
0.38 0.00813451
0.39 0.00266305
0.4 -0.00368097
0.41 -0.0107533
0.42 -0.0183449
0.43 -0.0263419
0.44 -0.0345105
0.45 -0.0426921
0.46 -0.0506951
0.47 -0.0583824
0.48 -0.0655155
0.49 -0.0720204
0.5 -0.0776925
0.51 -0.0823852
0.52 -0.086025
0.53 -0.0882903
0.54 -0.0892171
0.55 -0.0885075
0.56 -0.0860342
0.57 -0.0817152
0.58 -0.0751257
0.59 -0.0663947
0.6 -0.0551226
0.61 -0.0412898
0.62 -0.0248666
0.63 -0.00552194
0.64 0.0163872
0.65 0.041096
0.66 0.0682593
0.67 0.0976346
0.68 0.129022
0.69 0.161781
0.7 0.195518
0.71 0.229502
0.72 0.26308
0.73 0.295363
0.74 0.325742
0.75 0.353058
0.76 0.376773
0.77 0.396065
0.78 0.409953
0.79 0.41844
0.8 0.420223
0.81 0.415763
0.82 0.404668
0.83 0.386842
0.84 0.363168
0.85 0.333279
0.86 0.298664
0.87 0.259838
0.88 0.21786
0.89 0.173994
0.9 0.129302
0.91 0.0851121
0.92 0.0426186
0.93 0.00303027
0.94 -0.0329648
0.95 -0.0638637
0.96 -0.0897827
0.97 -0.109882
0.98 -0.124185
0.99 -0.133153
1 -0.136593
1.01 -0.13594
1.02 -0.131724
1.03 -0.125325
1.04 -0.118008
1.05 -0.11127
1.06 -0.106407
1.07 -0.105062
1.08 -0.108395
1.09 -0.117327
1.1 -0.133366
1.11 -0.156192
1.12 -0.186876
1.13 -0.224683
1.14 -0.269104
1.15 -0.319583
1.16 -0.374224
1.17 -0.431822
1.18 -0.490113
1.19 -0.547108
1.2 -0.600169
1.21 -0.647555
1.22 -0.685946
1.23 -0.714068
1.24 -0.729755
1.25 -0.730745
1.26 -0.717381
1.27 -0.68668
1.28 -0.640517
1.29 -0.578405
1.3 -0.501022
1.31 -0.411049
1.32 -0.308731
1.33 -0.198191
1.34 -0.0815711
1.35 0.0377058
1.36 0.156455
1.37 0.270625
1.38 0.377532
1.39 0.473393
1.4 0.555154
1.41 0.621405
1.42 0.667501
1.43 0.694735
1.44 0.700333
1.45 0.684666
1.46 0.649075
1.47 0.592271
1.48 0.518635
1.49 0.428577
1.5 0.325722
1.51 0.213222
1.52 0.0938375
1.53 -0.0282865
1.54 -0.149872
1.55 -0.267393
1.56 -0.378
1.57 -0.477886
1.58 -0.566041
1.59 -0.638944
1.6 -0.696376
1.61 -0.737516
1.62 -0.761027
1.63 -0.76918
1.64 -0.760855
1.65 -0.739044
1.66 -0.705095
1.67 -0.660749
1.68 -0.609181
1.69 -0.552008
1.7 -0.49232
1.71 -0.432203
1.72 -0.374005
1.73 -0.319222
1.74 -0.270081
1.75 -0.226985
1.76 -0.190945
1.77 -0.162323
1.78 -0.140309
1.79 -0.125307
1.8 -0.115379
1.81 -0.109724
1.82 -0.106727
1.83 -0.104758
1.84 -0.102064
1.85 -0.0971552
1.86 -0.0883636
1.87 -0.0743731
1.88 -0.0545615
1.89 -0.0273403
1.9 0.00659428
1.91 0.0478565
1.92 0.0956678
1.93 0.148993
1.94 0.207085
1.95 0.267866
1.96 0.329808
1.97 0.390759
1.98 0.448839
1.99 0.501369
2 0.547077
2.01 0.583131
2.02 0.60841
2.03 0.621647
2.04 0.620651
2.05 0.606371
2.06 0.576735
2.07 0.53317
2.08 0.47599
2.09 0.40542
2.1 0.324097
2.11 0.232307
2.12 0.1331
2.13 0.0282685
2.14 -0.079839
2.15 -0.188703
2.16 -0.29573
2.17 -0.398707
2.18 -0.495275
2.19 -0.582939
2.2 -0.660804
2.21 -0.725459
2.22 -0.777301
2.23 -0.814476
2.24 -0.836129
2.25 -0.84324
2.26 -0.83335
2.27 -0.809263
2.28 -0.770336
2.29 -0.717704
2.3 -0.653322
2.31 -0.577048
2.32 -0.49209
2.33 -0.399318
2.34 -0.300942
2.35 -0.198987
2.36 -0.0952722
2.37 0.00804325
2.38 0.108927
2.39 0.205445
2.4 0.296083
2.41 0.37826
2.42 0.451564
2.43 0.51356
2.44 0.563705
2.45 0.601336
2.46 0.624569
2.47 0.634736
2.48 0.63009
2.49 0.611961
2.5 0.580778
2.51 0.536501
2.52 0.481591
2.53 0.416079
2.54 0.342604
2.55 0.262708
2.56 0.178291
2.57 0.0917819
2.58 0.00530982
2.59 -0.0788406
2.6 -0.158509
2.61 -0.231204
2.62 -0.295837
2.63 -0.349241
2.64 -0.391333
2.65 -0.420396
2.66 -0.435353
2.67 -0.437101
2.68 -0.42351
2.69 -0.397117
2.7 -0.357734
2.71 -0.306658
2.72 -0.246137
2.73 -0.176746
2.74 -0.101763
2.75 -0.0228097
2.76 0.057585
2.77 0.137291
2.78 0.213671
2.79 0.285175
2.8 0.349474
2.81 0.405131
2.82 0.451395
2.83 0.486133
2.84 0.510379
2.85 0.522894
2.86 0.5246
2.87 0.516397
2.88 0.498437
2.89 0.473151
2.9 0.44125
2.91 0.404947
2.92 0.365901
2.93 0.325895
2.94 0.286636
2.95 0.249882
2.96 0.216844
2.97 0.188581
2.98 0.166304
2.99 0.149808
3 0.140042
3.01 0.136129
3.02 0.137734
3.03 0.144196
3.04 0.154049
3.05 0.166397
3.06 0.179534
3.07 0.192113
3.08 0.202507
3.09 0.209673
3.1 0.211697
3.11 0.208189
3.12 0.198027
3.13 0.180567
3.14 0.15623
3.15 0.123979
3.16 0.0853521
3.17 0.0404822
3.18 -0.0095586
3.19 -0.063376
3.2 -0.120025
3.21 -0.177715
3.22 -0.235118
3.23 -0.2907
3.24 -0.343357
3.25 -0.391334
3.26 -0.434299
3.27 -0.470967
3.28 -0.501066
3.29 -0.52464
3.3 -0.541025
3.31 -0.551455
3.32 -0.555847
3.33 -0.55538
3.34 -0.551016
3.35 -0.543599
3.36 -0.534548
3.37 -0.524826
3.38 -0.515578
3.39 -0.507659
3.4 -0.502025
3.41 -0.49893
3.42 -0.499044
3.43 -0.502136
3.44 -0.508058
3.45 -0.516452
3.46 -0.526412
3.47 -0.537176
3.48 -0.547562
3.49 -0.556447
3.5 -0.562397
3.51 -0.564574
3.52 -0.561092
3.53 -0.551558
3.54 -0.534805
3.55 -0.509939
3.56 -0.477309
3.57 -0.435503
3.58 -0.38591
3.59 -0.328395
3.6 -0.263728
3.61 -0.193359
3.62 -0.117762
3.63 -0.0390887
3.64 0.041435
3.65 0.122016
3.66 0.201166
3.67 0.276803
3.68 0.347906
3.69 0.412629
3.7 0.469841
3.71 0.51897
3.72 0.558116
3.73 0.588086
3.74 0.607623
3.75 0.617213
3.76 0.617369
3.77 0.607623
3.78 0.589826
3.79 0.563871
3.8 0.531253
3.81 0.492977
3.82 0.449737
3.83 0.403095
3.84 0.353686
3.85 0.302715
3.86 0.250969
3.87 0.199248
3.88 0.148145
3.89 0.0983192
3.9 0.0500812
3.91 0.00376934
3.92 -0.0402556
3.93 -0.0820694
3.94 -0.12121
3.95 -0.157869
3.96 -0.191847
3.97 -0.222938
3.98 -0.25129
3.99 -0.27628
4 -0.298112
4.01 -0.316348
4.02 -0.33062
4.03 -0.34099
4.04 -0.346452
4.05 -0.347391
4.06 -0.343183
4.07 -0.333613
4.08 -0.318953
4.09 -0.29837
4.1 -0.272789
4.11 -0.241955
4.12 -0.206355
4.13 -0.1667
4.14 -0.123157
4.15 -0.0769825
4.16 -0.0287617
4.17 0.0204237
4.18 0.0696369
4.19 0.11772
4.2 0.163857
4.21 0.206849
4.22 0.245937
4.23 0.280507
4.24 0.309407
4.25 0.332886
4.26 0.349988
4.27 0.361057
4.28 0.366207
4.29 0.365285
4.3 0.359399
4.31 0.348536
4.32 0.333873
4.33 0.316116
4.34 0.296058
4.35 0.274766
4.36 0.253025
4.37 0.231729
4.38 0.211588
4.39 0.193354
4.4 0.177289
4.41 0.164104
4.42 0.153646
4.43 0.14607
4.44 0.141296
4.45 0.138819
4.46 0.138545
4.47 0.139677
4.48 0.141761
4.49 0.144126
4.5 0.146198
4.51 0.147234
4.52 0.146852
4.53 0.144487
4.54 0.139781
4.55 0.13269
4.56 0.122759
4.57 0.110441
4.58 0.0957011
4.59 0.0789583
4.6 0.0607151
4.61 0.0414043
4.62 0.0217669
4.63 0.00244288
4.64 -0.0158481
4.65 -0.0325247
4.66 -0.0466812
4.67 -0.0580865
4.68 -0.0659189
4.69 -0.0699898
4.7 -0.0701156
4.71 -0.0657855
4.72 -0.0575195
4.73 -0.0449482
4.74 -0.0286448
4.75 -0.00891271
4.76 0.0140164
4.77 0.0393343
4.78 0.0667912
4.79 0.0956208
4.8 0.12534
4.81 0.155408
4.82 0.185347
4.83 0.214675
4.84 0.243096
4.85 0.270315
4.86 0.296074
4.87 0.320405
4.88 0.343038
4.89 0.3642
4.9 0.383871
4.91 0.402139
4.92 0.419236
4.93 0.435116
4.94 0.450055
4.95 0.464061
4.96 0.477179
4.97 0.489469
4.98 0.500724
4.99 0.510969
5 0.519934
5.01 0.527387
5.02 0.533171
5.03 0.536696
5.04 0.537952
5.05 0.536383
5.06 0.531744
5.07 0.523912
5.08 0.512228
5.09 0.497021
5.1 0.477792
5.11 0.454717
5.12 0.427947
5.13 0.397273
5.14 0.363391
5.15 0.326239
5.16 0.286432
5.17 0.244396
5.18 0.200492
5.19 0.155413
5.2 0.109563
5.21 0.0635484
5.22 0.0178301
5.23 -0.0270484
5.24 -0.0707894
5.25 -0.11284
5.26 -0.153058
5.27 -0.191174
5.28 -0.226905
5.29 -0.260399
5.3 -0.29128
5.31 -0.319859
5.32 -0.346082
5.33 -0.369983
5.34 -0.391877
5.35 -0.411584
5.36 -0.429508
5.37 -0.445636
5.38 -0.460052
5.39 -0.472962
5.4 -0.48416
5.41 -0.493905
5.42 -0.502055
5.43 -0.508578
5.44 -0.513535
5.45 -0.516607
5.46 -0.517987
5.47 -0.517447
5.48 -0.514977
5.49 -0.510654
5.5 -0.504238
5.51 -0.496049
5.52 -0.485987
5.53 -0.474265
5.54 -0.4611
5.55 -0.446577
5.56 -0.431109
5.57 -0.414881
5.58 -0.398263
5.59 -0.381554
5.6 -0.365113
5.61 -0.349205
5.62 -0.334207
5.63 -0.320332
5.64 -0.30779
5.65 -0.29689
5.66 -0.287574
5.67 -0.28014
5.68 -0.274449
5.69 -0.270508
5.7 -0.268334
5.71 -0.267635
5.72 -0.268451
5.73 -0.270438
5.74 -0.273447
5.75 -0.27728
5.76 -0.281659
5.77 -0.286433
5.78 -0.291352
5.79 -0.296254
5.8 -0.30096
5.81 -0.305364
5.82 -0.309284
5.83 -0.312692
5.84 -0.315477
5.85 -0.317564
5.86 -0.318959
5.87 -0.319485
5.88 -0.319208
5.89 -0.31799
5.9 -0.315755
5.91 -0.31248
5.92 -0.307884
5.93 -0.302021
5.94 -0.294623
5.95 -0.285575
5.96 -0.274814
5.97 -0.261961
5.98 -0.247168
5.99 -0.230123
6 -0.210866
6.01 -0.18945
6.02 -0.165699
6.03 -0.14001
6.04 -0.112344
6.05 -0.0830969
6.06 -0.0525919
6.07 -0.0211751
6.08 0.0106103
6.09 0.0422636
6.1 0.0732135
6.11 0.102919
6.12 0.130637
6.13 0.15606
6.14 0.178299
6.15 0.19717
6.16 0.212225
6.17 0.222942
6.18 0.229595
6.19 0.231526
6.2 0.229335
6.21 0.22305
6.22 0.21293
6.23 0.199771
6.24 0.183775
6.25 0.166009
6.26 0.147117
6.27 0.128012
6.28 0.109496
6.29 0.0926788
6.3 0.0781705
6.31 0.0669234
6.32 0.0597021
6.33 0.0567475
6.34 0.0592632
6.35 0.0667751
6.36 0.0798905
6.37 0.0984605
6.38 0.12199
6.39 0.150714
6.4 0.183396
6.41 0.219745
6.42 0.258739
6.43 0.299432
6.44 0.340872
6.45 0.381956
6.46 0.421557
6.47 0.458649
6.48 0.492384
6.49 0.521402
6.5 0.545518
6.51 0.563442
6.52 0.575064
6.53 0.580091
6.54 0.577803
6.55 0.569026
6.56 0.55309
6.57 0.530948
6.58 0.502962
6.59 0.469459
6.6 0.431683
6.61 0.389902
6.62 0.345398
6.63 0.298915
6.64 0.251356
6.65 0.203614
6.66 0.156571
6.67 0.110905
6.68 0.0673153
6.69 0.026478
6.7 -0.0114443
6.71 -0.0455952
6.72 -0.0762408
6.73 -0.103026
6.74 -0.125905
6.75 -0.145273
6.76 -0.160724
6.77 -0.173057
6.78 -0.182268
6.79 -0.188729
6.8 -0.192922
6.81 -0.194902
6.82 -0.195296
6.83 -0.194253
6.84 -0.19211
6.85 -0.189135
6.86 -0.185449
6.87 -0.181292
6.88 -0.176728
6.89 -0.17185
6.9 -0.166705
6.91 -0.161278
6.92 -0.155599
6.93 -0.149621
6.94 -0.143344
6.95 -0.136762
6.96 -0.129852
6.97 -0.122673
6.98 -0.115241
6.99 -0.107652
7 -0.099996
7.01 -0.0924103
7.02 -0.0850229
7.03 -0.0780355
7.04 -0.07159
7.05 -0.0658605
7.06 -0.0610728
7.07 -0.0572696
7.08 -0.0547338
7.09 -0.0534271
7.1 -0.0534504
7.11 -0.0548631
7.12 -0.0574988
7.13 -0.0614461
7.14 -0.0664025
7.15 -0.0722465
7.16 -0.0787368
7.17 -0.0855747
7.18 -0.0924722
7.19 -0.0990998
7.2 -0.105118
7.21 -0.110168
7.22 -0.114039
7.23 -0.116208
7.24 -0.116665
7.25 -0.115048
7.26 -0.111222
7.27 -0.105231
7.28 -0.0967332
7.29 -0.0861043
7.3 -0.0732295
7.31 -0.0583617
7.32 -0.0417897
7.33 -0.0236266
7.34 -0.0043897
7.35 0.0156737
7.36 0.036114
7.37 0.0565598
7.38 0.0765579
7.39 0.0957954
7.4 0.1138
7.41 0.130302
7.42 0.145044
7.43 0.157602
7.44 0.168049
7.45 0.175972
7.46 0.181501
7.47 0.184604
7.48 0.185177
7.49 0.183585
7.5 0.179696
7.51 0.173936
7.52 0.166474
7.53 0.157524
7.54 0.147497
7.55 0.136562
7.56 0.12513
7.57 0.113462
7.58 0.101871
7.59 0.090597
7.6 0.0799724
7.61 0.0701387
7.62 0.0613322
7.63 0.05374
7.64 0.0473718
7.65 0.0425366
7.66 0.0390686
7.67 0.0371025
7.68 0.0366134
7.69 0.0374578
7.7 0.0397504
7.71 0.0431847
7.72 0.0477409
7.73 0.0532255
7.74 0.059431
7.75 0.066229
7.76 0.0733354
7.77 0.080557
7.78 0.0876377
7.79 0.0943634
7.8 0.100414
7.81 0.10564
7.82 0.109703
7.83 0.112424
7.84 0.113633
7.85 0.112965
7.86 0.110483
7.87 0.105819
7.88 0.0990217
7.89 0.0900347
7.9 0.0786714
7.91 0.065224
7.92 0.0494981
7.93 0.0318283
7.94 0.0123466
7.95 -0.00879753
7.96 -0.0311825
7.97 -0.0546479
7.98 -0.0787318
7.99 -0.103113
8 -0.12738
8.01 -0.151194
8.02 -0.174065
8.03 -0.195738
8.04 -0.215832
8.05 -0.23399
8.06 -0.25016
8.07 -0.263806
8.08 -0.275138
8.09 -0.283929
8.1 -0.290176
8.11 -0.294148
8.12 -0.295634
8.13 -0.295191
8.14 -0.292893
8.15 -0.289084
8.16 -0.284151
8.17 -0.278326
8.18 -0.27207
8.19 -0.265674
8.2 -0.259473
8.21 -0.253705
8.22 -0.248676
8.23 -0.244442
8.24 -0.241179
8.25 -0.238857
8.26 -0.237392
8.27 -0.236716
8.28 -0.23653
8.29 -0.236606
8.3 -0.236576
8.31 -0.236097
8.32 -0.234673
8.33 -0.232025
8.34 -0.227561
8.35 -0.221022
8.36 -0.212072
8.37 -0.200218
8.38 -0.185571
8.39 -0.167596
8.4 -0.146558
8.41 -0.122428
8.42 -0.0952148
8.43 -0.065456
8.44 -0.0331503
8.45 0.000990711
8.46 0.0365791
8.47 0.073049
8.48 0.109782
8.49 0.146129
8.5 0.181513
8.51 0.215306
8.52 0.246865
8.53 0.275927
8.54 0.301578
8.55 0.323946
8.56 0.34252
8.57 0.357142
8.58 0.368058
8.59 0.374755
8.6 0.377989
8.61 0.377686
8.62 0.374282
8.63 0.36832
8.64 0.359981
8.65 0.350073
8.66 0.338949
8.67 0.327208
8.68 0.315324
8.69 0.303808
8.7 0.293003
8.71 0.28334
8.72 0.275038
8.73 0.268234
8.74 0.263183
8.75 0.259677
8.76 0.257819
8.77 0.257323
8.78 0.257966
8.79 0.259503
8.8 0.26151
8.81 0.263643
8.82 0.265475
8.83 0.26663
8.84 0.266627
8.85 0.265255
8.86 0.261969
8.87 0.256684
8.88 0.24914
8.89 0.239084
8.9 0.226703
8.91 0.211656
8.92 0.19434
8.93 0.174791
8.94 0.1532
8.95 0.13001
8.96 0.105347
8.97 0.0797864
8.98 0.053657
8.99 0.0274254
9 0.00148721
9.01 -0.0236075
9.02 -0.0475695
9.03 -0.0699206
9.04 -0.0902899
9.05 -0.108529
9.06 -0.124016
9.07 -0.136933
9.08 -0.146878
9.09 -0.153836
9.1 -0.15793
9.11 -0.158826
9.12 -0.157037
9.13 -0.152421
9.14 -0.145311
9.15 -0.136008
9.16 -0.124592
9.17 -0.111628
9.18 -0.097283
9.19 -0.0820174
9.2 -0.0661799
9.21 -0.0501365
9.22 -0.0342521
9.23 -0.0189137
9.24 -0.00442268
9.25 0.00894109
9.26 0.0207958
9.27 0.031096
9.28 0.0394323
9.29 0.0458414
9.3 0.0501991
9.31 0.0523501
9.32 0.0525294
9.33 0.0505132
9.34 0.0466404
9.35 0.0409713
9.36 0.0336385
9.37 0.0249869
9.38 0.0150688
9.39 0.00428332
9.4 -0.00718434
9.41 -0.0190761
9.42 -0.0311448
9.43 -0.0431709
9.44 -0.0549691
9.45 -0.0663677
9.46 -0.0772289
9.47 -0.0875152
9.48 -0.0970781
9.49 -0.106013
9.5 -0.114288
9.51 -0.121982
9.52 -0.129208
9.53 -0.136024
9.54 -0.142607
9.55 -0.149057
9.56 -0.155509
9.57 -0.162062
9.58 -0.168824
9.59 -0.175822
9.6 -0.183103
9.61 -0.190628
9.62 -0.198332
9.63 -0.20611
9.64 -0.213809
9.65 -0.22122
9.66 -0.228127
9.67 -0.234305
9.68 -0.239396
9.69 -0.243276
9.7 -0.245511
9.71 -0.24599
9.72 -0.244503
9.73 -0.240745
9.74 -0.23486
9.75 -0.226507
9.76 -0.215955
9.77 -0.203236
9.78 -0.188445
9.79 -0.172013
9.8 -0.154045
9.81 -0.135094
9.82 -0.115515
9.83 -0.0957944
9.84 -0.0763775
9.85 -0.0578586
9.86 -0.0405965
9.87 -0.0250974
9.88 -0.0118189
9.89 -0.000877925
9.9 0.00702312
9.91 0.0121336
9.92 0.0141212
9.93 0.0129975
9.94 0.00905341
9.95 0.00205974
9.96 -0.00730197
9.97 -0.0189326
9.98 -0.0323554
9.99 -0.0470806
10 -0.0627408
10.01 -0.0787422
10.02 -0.0946376
10.03 -0.109939
10.04 -0.124281
10.05 -0.137126
10.06 -0.148363
10.07 -0.157555
10.08 -0.164639
10.09 -0.169567
10.1 -0.172117
10.11 -0.172625
10.12 -0.170963
10.13 -0.16747
10.14 -0.162349
10.15 -0.155757
10.16 -0.148103
10.17 -0.139532
10.18 -0.130389
10.19 -0.12088
10.2 -0.111208
10.21 -0.101534
10.22 -0.0919809
10.23 -0.0825981
10.24 -0.0734041
10.25 -0.0643707
10.26 -0.0554173
10.27 -0.0464412
10.28 -0.0373186
10.29 -0.0279134
10.3 -0.0180724
10.31 -0.00772624
10.32 0.00331599
10.33 0.015022
10.34 0.0274588
10.35 0.0405985
10.36 0.0543158
10.37 0.0685564
10.38 0.0830689
10.39 0.097664
10.4 0.112065
10.41 0.126037
10.42 0.139186
10.43 0.151346
10.44 0.162152
10.45 0.171386
10.46 0.178942
10.47 0.184447
10.48 0.188092
10.49 0.189663
10.5 0.189323
10.51 0.18725
10.52 0.183493
10.53 0.178513
10.54 0.172496
10.55 0.165888
10.56 0.159047
10.57 0.152401
10.58 0.14629
10.59 0.141162
10.6 0.137274
10.61 0.134874
10.62 0.13428
10.63 0.135398
10.64 0.138489
10.65 0.143296
10.66 0.149714
10.67 0.157551
10.68 0.166371
10.69 0.175892
10.7 0.185591
10.71 0.195028
10.72 0.203657
10.73 0.211117
10.74 0.216707
10.75 0.220245
10.76 0.221265
10.77 0.219423
10.78 0.214792
10.79 0.206803
10.8 0.195934
10.81 0.18206
10.82 0.165418
10.83 0.146478
10.84 0.125326
10.85 0.102724
10.86 0.0790337
10.87 0.054863
10.88 0.0307417
10.89 0.00731595
10.9 -0.0149902
10.91 -0.0355667
10.92 -0.0540079
10.93 -0.0700623
10.94 -0.083118
10.95 -0.0933637
10.96 -0.100366
10.97 -0.104273
10.98 -0.105209
10.99 -0.103045
11 -0.098358
11.01 -0.0911258
11.02 -0.0818616
11.03 -0.070899
11.04 -0.0585231
11.05 -0.0452447
11.06 -0.0313357
11.07 -0.0172082
11.08 -0.00315133
11.09 0.0105211
11.1 0.0236361
11.11 0.0359132
11.12 0.0472955
11.13 0.0576674
11.14 0.0669273
11.15 0.0751687
11.16 0.0822502
11.17 0.0883375
11.18 0.0934205
11.19 0.0975252
11.2 0.100779
11.21 0.103082
11.22 0.104579
11.23 0.105212
11.24 0.104957
11.25 0.103854
11.26 0.101701
11.27 0.0985861
11.28 0.0943575
11.29 0.0889501
11.3 0.0823863
11.31 0.0744402
11.32 0.0652799
11.33 0.0547909
11.34 0.0430501
11.35 0.0301881
11.36 0.0161951
11.37 0.00137376
11.38 -0.0141646
11.39 -0.0301391
11.4 -0.0462958
11.41 -0.0623267
11.42 -0.0779598
11.43 -0.0928325
11.44 -0.106672
11.45 -0.119234
11.46 -0.130109
11.47 -0.139288
11.48 -0.146371
11.49 -0.151386
11.5 -0.154263
11.51 -0.154839
11.52 -0.153417
11.53 -0.149844
11.54 -0.144489
11.55 -0.137516
11.56 -0.129126
11.57 -0.11973
11.58 -0.109526
11.59 -0.0989307
11.6 -0.0882333
11.61 -0.0777776
11.62 -0.0678046
11.63 -0.0586813
11.64 -0.0505275
11.65 -0.0435674
11.66 -0.0379626
11.67 -0.0336625
11.68 -0.0309073
11.69 -0.0294563
11.7 -0.0293373
11.71 -0.0304223
11.72 -0.0324833
11.73 -0.0354659
11.74 -0.0390382
11.75 -0.0430451
11.76 -0.0472428
11.77 -0.0514283
11.78 -0.0553672
11.79 -0.0589149
11.8 -0.0618726
11.81 -0.0641183
11.82 -0.06559
11.83 -0.0661129
11.84 -0.0657721
11.85 -0.0644621
11.86 -0.0622502
11.87 -0.0591971
11.88 -0.0552872
11.89 -0.050698
11.9 -0.045439
11.91 -0.0396537
11.92 -0.0334346
11.93 -0.0268529
11.94 -0.0200344
11.95 -0.0130365
11.96 -0.00595132
11.97 0.00116179
11.98 0.00824205
11.99 0.0152496
12 0.0221313
12.01 0.0288648
12.02 0.0354178
12.03 0.0417505
12.04 0.0478588
12.05 0.0536757
12.06 0.0591994
12.07 0.06438
12.08 0.0691597
12.09 0.073532
12.1 0.077374
12.11 0.0806982
12.12 0.0834169
12.13 0.0854629
12.14 0.0868465
12.15 0.0874037
12.16 0.0872153
12.17 0.0861913
12.18 0.0843209
12.19 0.081662
12.2 0.0781108
12.21 0.0738225
12.22 0.0687716
12.23 0.0630418
12.24 0.056736
12.25 0.0498774
12.26 0.042633
12.27 0.0350658
12.28 0.0273033
12.29 0.0194506
12.3 0.0116188
12.31 0.00390205
12.32 -0.00359019
12.33 -0.0107814
12.34 -0.0176104
12.35 -0.0239742
12.36 -0.0298836
12.37 -0.0352463
12.38 -0.0400793
12.39 -0.0443735
12.4 -0.0480884
12.41 -0.0512969
12.42 -0.0539473
12.43 -0.0561092
12.44 -0.0577945
12.45 -0.0590011
12.46 -0.0597985
12.47 -0.060149
12.48 -0.0601148
12.49 -0.059693
12.5 -0.0588772
12.51 -0.0577096
12.52 -0.056139
12.53 -0.0542142
12.54 -0.0519171
12.55 -0.0492435
12.56 -0.0462336
12.57 -0.0428481
12.58 -0.0391585
12.59 -0.0351713
12.6 -0.0309292
12.61 -0.0264974
12.62 -0.021916
12.63 -0.017278
12.64 -0.0126574
12.65 -0.00815086
12.66 -0.00383581
12.67 0.000147802
12.68 0.00375081
12.69 0.00684248
12.7 0.00934558
12.71 0.0112191
12.72 0.0123147
12.73 0.0126928
12.74 0.0122524
12.75 0.0110326
12.76 0.00907871
12.77 0.00637137
12.78 0.00307695
12.79 -0.000768429
12.8 -0.00499759
12.81 -0.00947187
12.82 -0.0140268
12.83 -0.0184866
12.84 -0.0226422
12.85 -0.0263204
12.86 -0.029345
12.87 -0.0314711
12.88 -0.0326447
12.89 -0.0325799
