# xPDFsuite Configuration #
[PDF]
wavelength = 0.1
dataformat = QA
inputfile = B3_Bronze-3nm_ss_007.chi
backgroundfile = B3_Li-bkg_DD155_two_ss_att.chi
mode = xray
bgscale = 0.985
composition = Ti O2
outputtype = gr
qmaxinst = 23.5
qmin = 0.1
qmax = 23.0
rmax = 40.0
rmin = 0.0
rstep = 0.01
rpoly = 0.9

[Misc]
inputdir = E:/Beamtime/PETRA-III_September-2019/BeamData/processed/Run1/B3/integration_20210218/chi/chi_w_sigmas/chi_scaled
savedir = E:/Beamtime/PETRA-III_September-2019/BeamData/processed/Run1/B3/integration_20210218
backgroundfilefull = E:/Beamtime/PETRA-III_September-2019/BeamData/processed/Run1/B3/integration_20210218/chi/chi_w_sigmas/chi_scaled/B3_Li-bkg_DD155_two_ss_att.chi

#### start data
#S 1
#L r($\AA$)  G($\AA^{-2}$)
0 0
0.01 0.00381148
0.02 0.00742151
0.03 0.0106262
0.04 0.0132433
0.05 0.0151855
0.06 0.016234
0.07 0.0164562
0.08 0.01576
0.09 0.0142087
0.1 0.0119177
0.11 0.00893229
0.12 0.00549668
0.13 0.00174826
0.14 -0.00208584
0.15 -0.00581582
0.16 -0.00920136
0.17 -0.0121098
0.18 -0.0143221
0.19 -0.0157485
0.2 -0.0163243
0.21 -0.0159291
0.22 -0.0146861
0.23 -0.0125485
0.24 -0.00968972
0.25 -0.00623769
0.26 -0.00234467
0.27 0.00175711
0.28 0.00586766
0.29 0.0097615
0.3 0.0132363
0.31 0.0160483
0.32 0.0181054
0.33 0.0191397
0.34 0.0191494
0.35 0.018029
0.36 0.0157058
0.37 0.0123048
0.38 0.00771636
0.39 0.00217202
0.4 -0.00427303
0.41 -0.0114799
0.42 -0.0192386
0.43 -0.0274406
0.44 -0.0358432
0.45 -0.0442835
0.46 -0.0525583
0.47 -0.0605168
0.48 -0.0678996
0.49 -0.0746147
0.5 -0.080431
0.51 -0.0851759
0.52 -0.0887581
0.53 -0.0908125
0.54 -0.0913743
0.55 -0.0901116
0.56 -0.0868897
0.57 -0.0816294
0.58 -0.0738854
0.59 -0.0638255
0.6 -0.0510533
0.61 -0.0355924
0.62 -0.0174558
0.63 0.00363539
0.64 0.0272608
0.65 0.0535789
0.66 0.0821715
0.67 0.112725
0.68 0.144928
0.69 0.17811
0.7 0.211751
0.71 0.245098
0.72 0.277446
0.73 0.307832
0.74 0.335704
0.75 0.359821
0.76 0.379742
0.77 0.394674
0.78 0.403691
0.79 0.406931
0.8 0.40316
0.81 0.393007
0.82 0.37621
0.83 0.352844
0.84 0.323917
0.85 0.289286
0.86 0.250527
0.87 0.208327
0.88 0.163888
0.89 0.118489
0.9 0.0734314
0.91 0.0299221
0.92 -0.0107429
0.93 -0.047383
0.94 -0.0794349
0.95 -0.105341
0.96 -0.125478
0.97 -0.13907
0.98 -0.146331
0.99 -0.147911
1 -0.143789
1.01 -0.135607
1.02 -0.12409
1.03 -0.110797
1.04 -0.0971231
1.05 -0.0847853
1.06 -0.0750884
1.07 -0.0698441
1.08 -0.0702052
1.09 -0.0770853
1.1 -0.0920497
1.11 -0.114607
1.12 -0.145836
1.13 -0.184823
1.14 -0.230934
1.15 -0.28349
1.16 -0.340407
1.17 -0.400344
1.18 -0.460884
1.19 -0.519915
1.2 -0.574669
1.21 -0.623364
1.22 -0.66257
1.23 -0.691046
1.24 -0.706622
1.25 -0.70707
1.26 -0.692846
1.27 -0.661032
1.28 -0.613661
1.29 -0.550372
1.3 -0.472006
1.31 -0.381359
1.32 -0.278883
1.33 -0.168758
1.34 -0.0532616
1.35 0.064099
1.36 0.180167
1.37 0.290759
1.38 0.393358
1.39 0.484185
1.4 0.560315
1.41 0.620502
1.42 0.660234
1.43 0.681032
1.44 0.680319
1.45 0.658686
1.46 0.617647
1.47 0.5562
1.48 0.478792
1.49 0.386079
1.5 0.281757
1.51 0.169019
1.52 0.0508013
1.53 -0.0689241
1.54 -0.186773
1.55 -0.299382
1.56 -0.404012
1.57 -0.496914
1.58 -0.577332
1.59 -0.641819
1.6 -0.690377
1.61 -0.722323
1.62 -0.736456
1.63 -0.735176
1.64 -0.717452
1.65 -0.686337
1.66 -0.643205
1.67 -0.589801
1.68 -0.529257
1.69 -0.463138
1.7 -0.394456
1.71 -0.325215
1.72 -0.257665
1.73 -0.193256
1.74 -0.134112
1.75 -0.0806604
1.76 -0.033908
1.77 0.00571845
1.78 0.0388989
1.79 0.0650555
1.8 0.0858978
1.81 0.10193
1.82 0.114405
1.83 0.124683
1.84 0.133872
1.85 0.143307
1.86 0.154064
1.87 0.167082
1.88 0.182826
1.89 0.202113
1.9 0.224547
1.91 0.250234
1.92 0.278502
1.93 0.30854
1.94 0.339382
1.95 0.369757
1.96 0.398228
1.97 0.423382
1.98 0.443983
1.99 0.45802
2 0.465097
2.01 0.463246
2.02 0.452197
2.03 0.431462
2.04 0.399957
2.05 0.35894
2.06 0.307538
2.07 0.247329
2.08 0.179078
2.09 0.103653
2.1 0.0231308
2.11 -0.0614686
2.12 -0.147971
2.13 -0.234767
2.14 -0.319875
2.15 -0.401867
2.16 -0.478433
2.17 -0.548654
2.18 -0.610925
2.19 -0.663765
2.2 -0.70718
2.21 -0.738853
2.22 -0.759844
2.23 -0.769174
2.24 -0.766724
2.25 -0.753624
2.26 -0.728505
2.27 -0.693655
2.28 -0.64888
2.29 -0.595162
2.3 -0.533921
2.31 -0.465207
2.32 -0.391126
2.33 -0.312284
2.34 -0.230097
2.35 -0.145838
2.36 -0.060689
2.37 0.0239983
2.38 0.106873
2.39 0.186637
2.4 0.262231
2.41 0.331774
2.42 0.394873
2.43 0.449605
2.44 0.495357
2.45 0.53141
2.46 0.555985
2.47 0.569851
2.48 0.571217
2.49 0.560823
2.5 0.538682
2.51 0.504301
2.52 0.459578
2.53 0.404045
2.54 0.339865
2.55 0.268157
2.56 0.190328
2.57 0.108672
2.58 0.0247938
2.59 -0.0589614
2.6 -0.140611
2.61 -0.217773
2.62 -0.289077
2.63 -0.351567
2.64 -0.404695
2.65 -0.446649
2.66 -0.476111
2.67 -0.493592
2.68 -0.496835
2.69 -0.48794
2.7 -0.466501
2.71 -0.433523
2.72 -0.391023
2.73 -0.339307
2.74 -0.281508
2.75 -0.21904
2.76 -0.154285
2.77 -0.0893128
2.78 -0.0265164
2.79 0.0324845
2.8 0.0855476
2.81 0.131268
2.82 0.1689
2.83 0.196543
2.84 0.215096
2.85 0.223544
2.86 0.222796
2.87 0.213772
2.88 0.196855
2.89 0.174296
2.9 0.147045
2.91 0.117204
2.92 0.0864136
2.93 0.0565642
2.94 0.0290831
2.95 0.00583431
2.96 -0.0122531
2.97 -0.0242609
2.98 -0.0291171
2.99 -0.0273616
3 -0.0182025
3.01 -0.0028536
3.02 0.0181033
3.03 0.0437056
3.04 0.0722705
3.05 0.102565
3.06 0.132747
3.07 0.161257
3.08 0.186275
3.09 0.206788
3.1 0.220622
3.11 0.227579
3.12 0.226489
3.13 0.216783
3.14 0.199099
3.15 0.172384
3.16 0.138502
3.17 0.0976888
3.18 0.0512124
3.19 0.00064881
3.2 -0.0529368
3.21 -0.107615
3.22 -0.161982
3.23 -0.214462
3.24 -0.263957
3.25 -0.308756
3.26 -0.348612
3.27 -0.382372
3.28 -0.409918
3.29 -0.431434
3.3 -0.446516
3.31 -0.456472
3.32 -0.461477
3.33 -0.462788
3.34 -0.461433
3.35 -0.458419
3.36 -0.454988
3.37 -0.452174
3.38 -0.450878
3.39 -0.451764
3.4 -0.455547
3.41 -0.462111
3.42 -0.47176
3.43 -0.483853
3.44 -0.497839
3.45 -0.512825
3.46 -0.527683
3.47 -0.540986
3.48 -0.55146
3.49 -0.557641
3.5 -0.557772
3.51 -0.551223
3.52 -0.535661
3.53 -0.511189
3.54 -0.476676
3.55 -0.431495
3.56 -0.37657
3.57 -0.310702
3.58 -0.236057
3.59 -0.152987
3.6 -0.0629354
3.61 0.0321043
3.62 0.130826
3.63 0.230724
3.64 0.329882
3.65 0.426034
3.66 0.517541
3.67 0.601523
3.68 0.677333
3.69 0.742686
3.7 0.796608
3.71 0.838831
3.72 0.867272
3.73 0.883545
3.74 0.886465
3.75 0.877138
3.76 0.85659
3.77 0.82475
3.78 0.784134
3.79 0.735065
3.8 0.679556
3.81 0.618999
3.82 0.554561
3.83 0.487962
3.84 0.420243
3.85 0.352647
3.86 0.286053
3.87 0.221407
3.88 0.159059
3.89 0.0998018
3.9 0.0436442
3.91 -0.00918284
3.92 -0.0584355
3.93 -0.104475
3.94 -0.146867
3.95 -0.186049
3.96 -0.221894
3.97 -0.254254
3.98 -0.283361
3.99 -0.308506
4 -0.329922
4.01 -0.347057
4.02 -0.359415
4.03 -0.367016
4.04 -0.368556
4.05 -0.364449
4.06 -0.353863
4.07 -0.336483
4.08 -0.312627
4.09 -0.281224
4.1 -0.243458
4.11 -0.199029
4.12 -0.148603
4.13 -0.0931359
4.14 -0.0329465
4.15 0.0303097
4.16 0.0957554
4.17 0.161913
4.18 0.227509
4.19 0.290871
4.2 0.350957
4.21 0.406051
4.22 0.455137
4.23 0.497387
4.24 0.531151
4.25 0.556851
4.26 0.57309
4.27 0.580379
4.28 0.578864
4.29 0.568261
4.3 0.550158
4.31 0.524424
4.32 0.492718
4.33 0.455981
4.34 0.415234
4.35 0.372027
4.36 0.32733
4.37 0.282477
4.38 0.238452
4.39 0.196316
4.4 0.156576
4.41 0.120234
4.42 0.087282
4.43 0.0580643
4.44 0.0326721
4.45 0.0106011
4.46 -0.00798818
4.47 -0.0240023
4.48 -0.0377741
4.49 -0.0499257
4.5 -0.061119
4.51 -0.0718513
4.52 -0.0826914
4.53 -0.09405
4.54 -0.106249
4.55 -0.119386
4.56 -0.133629
4.57 -0.148708
4.58 -0.164446
4.59 -0.180412
4.6 -0.196154
4.61 -0.210992
4.62 -0.224445
4.63 -0.235724
4.64 -0.244259
4.65 -0.249619
4.66 -0.250894
4.67 -0.248226
4.68 -0.240887
4.69 -0.229034
4.7 -0.212763
4.71 -0.191885
4.72 -0.167258
4.73 -0.138899
4.74 -0.107701
4.75 -0.0742769
4.76 -0.039297
4.77 -0.00364748
4.78 0.0319337
4.79 0.0666873
4.8 0.0999606
4.81 0.131006
4.82 0.159602
4.83 0.184989
4.84 0.20727
4.85 0.226228
4.86 0.241779
4.87 0.254387
4.88 0.263893
4.89 0.271034
4.9 0.27607
4.91 0.27947
4.92 0.281799
4.93 0.283409
4.94 0.284819
4.95 0.286361
4.96 0.288343
4.97 0.290902
4.98 0.294235
4.99 0.298214
5 0.302782
5.01 0.307698
5.02 0.312677
5.03 0.317314
5.04 0.321261
5.05 0.324019
5.06 0.325165
5.07 0.324401
5.08 0.321078
5.09 0.315237
5.1 0.306374
5.11 0.294501
5.12 0.279663
5.13 0.261634
5.14 0.240962
5.15 0.217596
5.16 0.19207
5.17 0.16477
5.18 0.136061
5.19 0.106554
5.2 0.0766649
5.21 0.0469228
5.22 0.0177444
5.23 -0.010383
5.24 -0.0372577
5.25 -0.062414
5.26 -0.0858244
5.27 -0.107338
5.28 -0.126833
5.29 -0.144551
5.3 -0.160352
5.31 -0.174619
5.32 -0.187475
5.33 -0.199133
5.34 -0.209918
5.35 -0.219956
5.36 -0.229553
5.37 -0.238847
5.38 -0.247982
5.39 -0.257041
5.4 -0.266042
5.41 -0.274962
5.42 -0.283708
5.43 -0.292139
5.44 -0.300121
5.45 -0.307355
5.46 -0.313733
5.47 -0.318959
5.48 -0.322833
5.49 -0.325263
5.5 -0.325888
5.51 -0.324851
5.52 -0.321931
5.53 -0.317217
5.54 -0.310841
5.55 -0.302767
5.56 -0.293393
5.57 -0.282818
5.58 -0.271409
5.59 -0.259468
5.6 -0.247324
5.61 -0.23532
5.62 -0.223823
5.63 -0.213126
5.64 -0.203491
5.65 -0.19528
5.66 -0.188519
5.67 -0.183565
5.68 -0.180358
5.69 -0.17897
5.7 -0.179496
5.71 -0.181686
5.72 -0.185672
5.73 -0.191131
5.74 -0.197967
5.75 -0.206036
5.76 -0.215046
5.77 -0.224924
5.78 -0.235373
5.79 -0.246247
5.8 -0.257362
5.81 -0.268548
5.82 -0.279642
5.83 -0.290511
5.84 -0.301006
5.85 -0.310979
5.86 -0.32035
5.87 -0.328855
5.88 -0.336471
5.89 -0.342959
5.9 -0.348142
5.91 -0.351933
5.92 -0.3539
5.93 -0.35409
5.94 -0.352119
5.95 -0.347832
5.96 -0.341166
5.97 -0.331637
5.98 -0.319499
5.99 -0.304388
6 -0.286422
6.01 -0.265726
6.02 -0.24215
6.03 -0.216243
6.04 -0.188021
6.05 -0.158016
6.06 -0.126651
6.07 -0.0943812
6.08 -0.0618405
6.09 -0.0296311
6.1 0.00162154
6.11 0.0313316
6.12 0.0587117
6.13 0.0834932
6.14 0.104781
6.15 0.12248
6.16 0.136214
6.17 0.145574
6.18 0.150955
6.19 0.151865
6.2 0.149032
6.21 0.142644
6.22 0.133143
6.23 0.121383
6.24 0.107825
6.25 0.0935034
6.26 0.079188
6.27 0.0658463
6.28 0.0541745
6.29 0.0454102
6.3 0.0399099
6.31 0.0385834
6.32 0.0420171
6.33 0.050226
6.34 0.0642379
6.35 0.0832937
6.36 0.107754
6.37 0.137194
6.38 0.170912
6.39 0.20877
6.4 0.249454
6.41 0.29236
6.42 0.336344
6.43 0.38041
6.44 0.423323
6.45 0.464193
6.46 0.501717
6.47 0.535029
6.48 0.563413
6.49 0.585515
6.5 0.601507
6.51 0.610163
6.52 0.611687
6.53 0.606009
6.54 0.592631
6.55 0.572646
6.56 0.545608
6.57 0.512682
6.58 0.474406
6.59 0.431315
6.6 0.384698
6.61 0.335032
6.62 0.283567
6.63 0.231104
6.64 0.178589
6.65 0.126788
6.66 0.0766639
6.67 0.0287114
6.68 -0.0164084
6.69 -0.0580983
6.7 -0.0963402
6.71 -0.130295
6.72 -0.160381
6.73 -0.186287
6.74 -0.208036
6.75 -0.226083
6.76 -0.240031
6.77 -0.250725
6.78 -0.258152
6.79 -0.262683
6.8 -0.264795
6.81 -0.264497
6.82 -0.262423
6.83 -0.258682
6.84 -0.253596
6.85 -0.247437
6.86 -0.240288
6.87 -0.232435
6.88 -0.223932
6.89 -0.214915
6.9 -0.205472
6.91 -0.195626
6.92 -0.185473
6.93 -0.175022
6.94 -0.164336
6.95 -0.153464
6.96 -0.142454
6.97 -0.131388
6.98 -0.120347
6.99 -0.109432
7 -0.098745
7.01 -0.088441
7.02 -0.078597
7.03 -0.0694168
7.04 -0.0609727
7.05 -0.0533922
7.06 -0.0468397
7.07 -0.0412876
7.08 -0.0369454
7.09 -0.0337125
7.1 -0.0316264
7.11 -0.0306794
7.12 -0.0306887
7.13 -0.0316664
7.14 -0.033334
7.15 -0.0355485
7.16 -0.0380757
7.17 -0.0406687
7.18 -0.0430378
7.19 -0.0449425
7.2 -0.0460849
7.21 -0.0461753
7.22 -0.0450733
7.23 -0.04233
7.24 -0.0379953
7.25 -0.0317792
7.26 -0.0236047
7.27 -0.0135456
7.28 -0.00134675
7.29 0.0126345
7.3 0.0284539
7.31 0.0458543
7.32 0.0645556
7.33 0.0843893
7.34 0.104894
7.35 0.125777
7.36 0.146605
7.37 0.167014
7.38 0.186493
7.39 0.204773
7.4 0.221307
7.41 0.235829
7.42 0.248056
7.43 0.257479
7.44 0.264209
7.45 0.267718
7.46 0.268162
7.47 0.265477
7.48 0.259498
7.49 0.250669
7.5 0.238775
7.51 0.22435
7.52 0.207584
7.53 0.18874
7.54 0.168361
7.55 0.146661
7.56 0.124217
7.57 0.101399
7.58 0.0786655
7.59 0.0563828
7.6 0.0350627
7.61 0.0149416
7.62 -0.00359884
7.63 -0.0202447
7.64 -0.0349622
7.65 -0.0472442
7.66 -0.0573408
7.67 -0.0650292
7.68 -0.0703467
7.69 -0.0735268
7.7 -0.0743945
7.71 -0.0734507
7.72 -0.0707398
7.73 -0.0665801
7.74 -0.0613031
7.75 -0.0551086
7.76 -0.0484228
7.77 -0.0415116
7.78 -0.0347158
7.79 -0.0283008
7.8 -0.0226263
7.81 -0.0178378
7.82 -0.0142612
7.83 -0.012021
7.84 -0.0112236
7.85 -0.0121199
7.86 -0.0145628
7.87 -0.0187593
7.88 -0.0245526
7.89 -0.0318779
7.9 -0.040729
7.91 -0.050801
7.92 -0.0620683
7.93 -0.0742135
7.94 -0.0870401
7.95 -0.100311
7.96 -0.113743
7.97 -0.127066
7.98 -0.140015
7.99 -0.152328
8 -0.163695
8.01 -0.173987
8.02 -0.182791
8.03 -0.190083
8.04 -0.195621
8.05 -0.199216
8.06 -0.20095
8.07 -0.200452
8.08 -0.198002
8.09 -0.193478
8.1 -0.18694
8.11 -0.178642
8.12 -0.168461
8.13 -0.156847
8.14 -0.143878
8.15 -0.129831
8.16 -0.115007
8.17 -0.0996093
8.18 -0.0839912
8.19 -0.0684071
8.2 -0.053145
8.21 -0.0384164
8.22 -0.0245455
8.23 -0.0116035
8.24 0.000155664
8.25 0.0106756
8.26 0.0199414
8.27 0.0278165
8.28 0.0345201
8.29 0.0400182
8.3 0.0445449
8.31 0.0482889
8.32 0.0514431
8.33 0.05432
8.34 0.0571787
8.35 0.0603201
8.36 0.0640094
8.37 0.0685874
8.38 0.0741831
8.39 0.0811591
8.4 0.0895488
8.41 0.0994835
8.42 0.111086
8.43 0.124165
8.44 0.13883
8.45 0.154738
8.46 0.171724
8.47 0.189497
8.48 0.207671
8.49 0.22587
8.5 0.243666
8.51 0.260614
8.52 0.276214
8.53 0.290196
8.54 0.301824
8.55 0.311066
8.56 0.317427
8.57 0.320646
8.58 0.320798
8.59 0.317297
8.6 0.310659
8.61 0.30067
8.62 0.287582
8.63 0.271794
8.64 0.253309
8.65 0.232869
8.66 0.210713
8.67 0.187415
8.68 0.16347
8.69 0.13938
8.7 0.115634
8.71 0.092748
8.72 0.0711238
8.73 0.0510696
8.74 0.0330811
8.75 0.0171209
8.76 0.00358516
8.77 -0.00763477
8.78 -0.0165748
8.79 -0.0231789
8.8 -0.0278863
8.81 -0.0307187
8.82 -0.0321594
8.83 -0.032519
8.84 -0.0321622
8.85 -0.0315317
8.86 -0.0310199
8.87 -0.0310033
8.88 -0.0318227
8.89 -0.033849
8.9 -0.0371862
8.91 -0.042229
8.92 -0.0488839
8.93 -0.0572564
8.94 -0.0673305
8.95 -0.0788348
8.96 -0.091765
8.97 -0.10566
8.98 -0.120269
8.99 -0.135183
9 -0.150011
9.01 -0.164234
9.02 -0.177504
9.03 -0.189317
9.04 -0.199239
9.05 -0.207058
9.06 -0.212082
9.07 -0.214435
9.08 -0.213654
9.09 -0.209683
9.1 -0.202632
9.11 -0.192136
9.12 -0.178756
9.13 -0.162371
9.14 -0.143388
9.15 -0.122185
9.16 -0.0989549
9.17 -0.0743604
9.18 -0.0487224
9.19 -0.0226198
9.2 0.00348199
9.21 0.0290167
9.22 0.0535941
9.23 0.076609
9.24 0.0977361
9.25 0.11662
9.26 0.132734
9.27 0.146136
9.28 0.156245
9.29 0.163226
9.3 0.166953
9.31 0.167256
9.32 0.164549
9.33 0.158537
9.34 0.149759
9.35 0.138322
9.36 0.124427
9.37 0.108575
9.38 0.0908197
9.39 0.0717201
9.4 0.0515069
9.41 0.0305078
9.42 0.00905827
9.43 -0.0126021
9.44 -0.0342025
9.45 -0.0555397
9.46 -0.0764283
9.47 -0.0967859
9.48 -0.116421
9.49 -0.135383
9.5 -0.153587
9.51 -0.171051
9.52 -0.187842
9.53 -0.203908
9.54 -0.219391
9.55 -0.234273
9.56 -0.248605
9.57 -0.262422
9.58 -0.275646
9.59 -0.288311
9.6 -0.300273
9.61 -0.311443
9.62 -0.321702
9.63 -0.33074
9.64 -0.338496
9.65 -0.34456
9.66 -0.348762
9.67 -0.350865
9.68 -0.350385
9.69 -0.347375
9.7 -0.341258
9.71 -0.332084
9.72 -0.319685
9.73 -0.303753
9.74 -0.28465
9.75 -0.261995
9.76 -0.236277
9.77 -0.207617
9.78 -0.176217
9.79 -0.142697
9.8 -0.107248
9.81 -0.0706158
9.82 -0.0332828
9.83 0.00409887
9.84 0.0409588
9.85 0.0764997
9.86 0.110269
9.87 0.141589
9.88 0.169843
9.89 0.194867
9.9 0.215663
9.91 0.232536
9.92 0.244956
9.93 0.252842
9.94 0.256514
9.95 0.255457
9.96 0.250547
9.97 0.241714
9.98 0.229468
9.99 0.214398
10 0.196711
10.01 0.177282
10.02 0.156487
10.03 0.134977
10.04 0.113265
10.05 0.0919017
10.06 0.0712759
10.07 0.0518734
10.08 0.0339639
10.09 0.0177429
10.1 0.00355618
10.11 -0.00875924
10.12 -0.0189617
10.13 -0.0272678
10.14 -0.0337897
10.15 -0.0385836
10.16 -0.0420346
10.17 -0.0442088
10.18 -0.0454668
10.19 -0.0460118
10.2 -0.0460495
10.21 -0.0458113
10.22 -0.0454322
10.23 -0.0450477
10.24 -0.0447268
10.25 -0.044504
10.26 -0.0443565
10.27 -0.0442355
10.28 -0.044049
10.29 -0.0436867
10.3 -0.0430039
10.31 -0.0419101
10.32 -0.0401934
10.33 -0.0378251
10.34 -0.0346732
10.35 -0.030673
10.36 -0.0258746
10.37 -0.0201723
10.38 -0.0137609
10.39 -0.00667932
10.4 0.000909162
10.41 0.00881767
10.42 0.0168665
10.43 0.0248319
10.44 0.0324949
10.45 0.0396458
10.46 0.0461417
10.47 0.0517243
10.48 0.0564025
10.49 0.0600092
10.5 0.0625773
10.51 0.0641714
10.52 0.0647946
10.53 0.0647048
10.54 0.0640157
10.55 0.0630066
10.56 0.0619173
10.57 0.0610492
10.58 0.0606345
10.59 0.0610093
10.6 0.0623583
10.61 0.0648709
10.62 0.0687917
10.63 0.0740464
10.64 0.0808364
10.65 0.0889566
10.66 0.0983161
10.67 0.108747
10.68 0.11989
10.69 0.131481
10.7 0.143078
10.71 0.154287
10.72 0.164606
10.73 0.173718
10.74 0.180951
10.75 0.186137
10.76 0.188814
10.77 0.188626
10.78 0.185625
10.79 0.17919
10.8 0.169761
10.81 0.157145
10.82 0.141509
10.83 0.123279
10.84 0.102413
10.85 0.0796676
10.86 0.055303
10.87 0.0298837
10.88 0.00393547
10.89 -0.0220029
10.9 -0.0474231
10.91 -0.071768
10.92 -0.0945783
10.93 -0.115538
10.94 -0.134024
10.95 -0.150083
10.96 -0.163226
10.97 -0.17347
10.98 -0.180826
10.99 -0.185034
11 -0.186551
11.01 -0.185201
11.02 -0.181381
11.03 -0.175315
11.04 -0.167111
11.05 -0.157263
11.06 -0.145844
11.07 -0.133264
11.08 -0.119737
11.09 -0.105462
11.1 -0.0907027
11.11 -0.0755787
11.12 -0.0602722
11.13 -0.0448843
11.14 -0.0295118
11.15 -0.0142172
11.16 0.000924556
11.17 0.0158808
11.18 0.0305958
11.19 0.0450028
11.2 0.0590704
11.21 0.072652
11.22 0.0857106
11.23 0.0980951
11.24 0.109649
11.25 0.120303
11.26 0.129713
11.27 0.13789
11.28 0.144558
11.29 0.149556
11.3 0.152865
11.31 0.154098
11.32 0.153462
11.33 0.150734
11.34 0.145976
11.35 0.139338
11.36 0.130706
11.37 0.120502
11.38 0.108773
11.39 0.0958625
11.4 0.0820807
11.41 0.0677066
11.42 0.0531457
11.43 0.0387423
11.44 0.024857
11.45 0.0117873
11.46 -4.84991e-05
11.47 -0.0105483
11.48 -0.0193194
11.49 -0.0263312
11.5 -0.0314938
11.51 -0.0346461
11.52 -0.0360489
11.53 -0.03558
11.54 -0.0335831
11.55 -0.0302307
11.56 -0.0257437
11.57 -0.0205091
11.58 -0.0147645
11.59 -0.00889412
11.6 -0.00319103
11.61 0.00200713
11.62 0.00650458
11.63 0.00993604
11.64 0.0122494
11.65 0.0132596
11.66 0.0128671
11.67 0.0111852
11.68 0.00805761
11.69 0.00378543
11.7 -0.00157441
11.71 -0.00781334
11.72 -0.0146662
11.73 -0.0219488
11.74 -0.0293478
11.75 -0.0366247
11.76 -0.0435157
11.77 -0.0498407
11.78 -0.0552916
11.79 -0.059828
11.8 -0.0632324
11.81 -0.0654527
11.82 -0.0665016
11.83 -0.0662367
11.84 -0.0648644
11.85 -0.0623344
11.86 -0.0588101
11.87 -0.054426
11.88 -0.0492469
11.89 -0.0435031
11.9 -0.0372715
11.91 -0.0307237
11.92 -0.0239722
11.93 -0.0171166
11.94 -0.0102465
11.95 -0.00342554
11.96 0.00330802
11.97 0.00993369
11.98 0.0164391
11.99 0.0228444
12 0.0291525
12.01 0.0353913
12.02 0.0415724
12.03 0.0477001
12.04 0.0537734
12.05 0.059757
12.06 0.0656154
12.07 0.0712795
12.08 0.0766454
12.09 0.0816419
12.1 0.0860664
12.11 0.0898491
12.12 0.092803
12.13 0.0947498
12.14 0.0956404
12.15 0.0951365
12.16 0.0933167
12.17 0.0899746
12.18 0.0850458
12.19 0.0786102
12.2 0.0704434
12.21 0.0608332
12.22 0.0497258
12.23 0.0372918
12.24 0.0237469
12.25 0.00916735
12.26 -0.00609391
12.27 -0.0218654
12.28 -0.0378544
12.29 -0.0538176
12.3 -0.0694591
12.31 -0.0845849
12.32 -0.0989023
12.33 -0.112242
12.34 -0.124463
12.35 -0.135301
12.36 -0.144822
12.37 -0.15279
12.38 -0.159285
12.39 -0.164306
12.4 -0.167779
12.41 -0.169926
12.42 -0.170653
12.43 -0.170176
12.44 -0.168565
12.45 -0.165865
12.46 -0.162277
12.47 -0.157767
12.48 -0.152505
12.49 -0.14652
12.5 -0.139827
12.51 -0.132517
12.52 -0.124506
12.53 -0.115873
12.54 -0.106571
12.55 -0.0965637
12.56 -0.0858972
12.57 -0.0744494
12.58 -0.0623225
12.59 -0.0494794
12.6 -0.0359539
12.61 -0.0218509
12.62 -0.00717227
12.63 0.00788843
12.64 0.0232306
12.65 0.0386722
12.66 0.0540401
12.67 0.0690885
12.68 0.0836504
12.69 0.0974574
12.7 0.110297
12.71 0.122024
12.72 0.132282
12.73 0.141104
12.74 0.148199
12.75 0.153547
12.76 0.157153
12.77 0.158827
12.78 0.15885
12.79 0.15712
12.8 0.153894
12.81 0.149351
12.82 0.143622
12.83 0.137073
12.84 0.129882
