# xPDFsuite Configuration #
[PDF]
wavelength = 0.1
dataformat = QA
inputfile = B3_Bronze-3nm_ss_024.chi
backgroundfile = B3_Li-bkg_DD155_two_ss_att.chi
mode = xray
bgscale = 0.985
composition = Ti O2
outputtype = gr
qmaxinst = 23.5
qmin = 0.1
qmax = 23.0
rmax = 40.0
rmin = 0.0
rstep = 0.01
rpoly = 0.9

[Misc]
inputdir = E:/Beamtime/PETRA-III_September-2019/BeamData/processed/Run1/B3/integration_20210218/chi/chi_w_sigmas/chi_scaled
savedir = E:/Beamtime/PETRA-III_September-2019/BeamData/processed/Run1/B3/integration_20210218
backgroundfilefull = E:/Beamtime/PETRA-III_September-2019/BeamData/processed/Run1/B3/integration_20210218/chi/chi_w_sigmas/chi_scaled/B3_Li-bkg_DD155_two_ss_att.chi

#### start data
#S 1
#L r($\AA$)  G($\AA^{-2}$)
0 0
0.01 0.00556005
0.02 0.0108277
0.03 0.0155071
0.04 0.0193334
0.05 0.0221797
0.06 0.0237273
0.07 0.0240733
0.08 0.0230831
0.09 0.0208468
0.1 0.0175311
0.11 0.0131992
0.12 0.00820522
0.13 0.00274649
0.14 -0.002848
0.15 -0.00830306
0.16 -0.0132717
0.17 -0.0175598
0.18 -0.0208506
0.19 -0.0230127
0.2 -0.0239514
0.21 -0.0234916
0.22 -0.0218102
0.23 -0.0188385
0.24 -0.0148254
0.25 -0.00995446
0.26 -0.00444273
0.27 0.00137715
0.28 0.00722273
0.29 0.0127747
0.3 0.0177505
0.31 0.0218142
0.32 0.0248435
0.33 0.0264816
0.34 0.0267414
0.35 0.0255005
0.36 0.0226922
0.37 0.01851
0.38 0.0128597
0.39 0.00607716
0.4 -0.00171751
0.41 -0.0102947
0.42 -0.0193676
0.43 -0.0287282
0.44 -0.0380878
0.45 -0.0472173
0.46 -0.0558766
0.47 -0.063927
0.48 -0.0710747
0.49 -0.0773092
0.5 -0.0824323
0.51 -0.0863572
0.52 -0.0890825
0.53 -0.0903549
0.54 -0.0903026
0.55 -0.0887144
0.56 -0.0855471
0.57 -0.0807767
0.58 -0.074075
0.59 -0.0655657
0.6 -0.0549053
0.61 -0.042049
0.62 -0.0269302
0.63 -0.00918914
0.64 0.0109277
0.65 0.0337341
0.66 0.0590112
0.67 0.0866293
0.68 0.116543
0.69 0.148194
0.7 0.181358
0.71 0.215362
0.72 0.249627
0.73 0.283362
0.74 0.315887
0.75 0.346121
0.76 0.373391
0.77 0.396808
0.78 0.415283
0.79 0.428631
0.8 0.435399
0.81 0.435841
0.82 0.429371
0.83 0.415672
0.84 0.395501
0.85 0.368207
0.86 0.335253
0.87 0.296994
0.88 0.254407
0.89 0.208837
0.9 0.161193
0.91 0.11306
0.92 0.0656637
0.93 0.0203968
0.94 -0.0218221
0.95 -0.0593126
0.96 -0.0918996
0.97 -0.118502
0.98 -0.138876
0.99 -0.153293
1 -0.161234
1.01 -0.164086
1.02 -0.162139
1.03 -0.156726
1.04 -0.149127
1.05 -0.140718
1.06 -0.133044
1.07 -0.127748
1.08 -0.126241
1.09 -0.129657
1.1 -0.139721
1.11 -0.156422
1.12 -0.181101
1.13 -0.213301
1.14 -0.252751
1.15 -0.299208
1.16 -0.350849
1.17 -0.406765
1.18 -0.464677
1.19 -0.522654
1.2 -0.578116
1.21 -0.629101
1.22 -0.672317
1.23 -0.706174
1.24 -0.728327
1.25 -0.73626
1.26 -0.730018
1.27 -0.706329
1.28 -0.666795
1.29 -0.610659
1.3 -0.538324
1.31 -0.452376
1.32 -0.35272
1.33 -0.243567
1.34 -0.126924
1.35 -0.00622743
1.36 0.115162
1.37 0.233245
1.38 0.344983
1.39 0.446466
1.4 0.534367
1.41 0.607014
1.42 0.659488
1.43 0.692837
1.44 0.704018
1.45 0.693193
1.46 0.66158
1.47 0.607634
1.48 0.535808
1.49 0.446377
1.5 0.34305
1.51 0.229085
1.52 0.107285
1.53 -0.0179295
1.54 -0.143155
1.55 -0.264601
1.56 -0.379205
1.57 -0.48291
1.58 -0.574526
1.59 -0.650286
1.6 -0.709858
1.61 -0.752309
1.62 -0.776168
1.63 -0.783794
1.64 -0.773979
1.65 -0.749892
1.66 -0.712977
1.67 -0.665125
1.68 -0.609742
1.69 -0.548637
1.7 -0.485142
1.71 -0.421556
1.72 -0.360471
1.73 -0.303496
1.74 -0.253134
1.75 -0.209778
1.76 -0.174555
1.77 -0.14785
1.78 -0.128718
1.79 -0.117611
1.8 -0.112299
1.81 -0.111855
1.82 -0.114413
1.83 -0.118093
1.84 -0.120845
1.85 -0.120945
1.86 -0.116425
1.87 -0.105724
1.88 -0.0880891
1.89 -0.0615879
1.9 -0.0270019
1.91 0.0164841
1.92 0.0680337
1.93 0.126497
1.94 0.191157
1.95 0.259583
1.96 0.330144
1.97 0.400356
1.98 0.468062
1.99 0.530267
2 0.585398
2.01 0.63027
2.02 0.663503
2.03 0.683598
2.04 0.688033
2.05 0.677761
2.06 0.650401
2.07 0.607474
2.08 0.549275
2.09 0.476
2.1 0.390572
2.11 0.293265
2.12 0.187484
2.13 0.0752178
2.14 -0.0409301
2.15 -0.15813
2.16 -0.273528
2.17 -0.384639
2.18 -0.488863
2.19 -0.58346
2.2 -0.667443
2.21 -0.73712
2.22 -0.792949
2.23 -0.83297
2.24 -0.856331
2.25 -0.864156
2.26 -0.853931
2.27 -0.828743
2.28 -0.788033
2.29 -0.733137
2.3 -0.666206
2.31 -0.587277
2.32 -0.499746
2.33 -0.404657
2.34 -0.304367
2.35 -0.200986
2.36 -0.0964934
2.37 0.00698844
2.38 0.107347
2.39 0.202696
2.4 0.29159
2.41 0.371472
2.42 0.442097
2.43 0.501106
2.44 0.548113
2.45 0.58258
2.46 0.602772
2.47 0.610126
2.48 0.603041
2.49 0.582918
2.5 0.550254
2.51 0.505108
2.52 0.449897
2.53 0.38473
2.54 0.312168
2.55 0.233727
2.56 0.151274
2.57 0.0671177
2.58 -0.0166404
2.59 -0.0978404
2.6 -0.174391
2.61 -0.243884
2.62 -0.305302
2.63 -0.355546
2.64 -0.394573
2.65 -0.420702
2.66 -0.43288
2.67 -0.431993
2.68 -0.415924
2.69 -0.387168
2.7 -0.345518
2.71 -0.292231
2.72 -0.229519
2.73 -0.157916
2.74 -0.0806722
2.75 0.000620725
2.76 0.083452
2.77 0.165691
2.78 0.244709
2.79 0.318924
2.8 0.385988
2.81 0.444417
2.82 0.49342
2.83 0.530797
2.84 0.557539
2.85 0.572332
2.86 0.57605
2.87 0.569552
2.88 0.552908
2.89 0.528565
2.9 0.497165
2.91 0.460939
2.92 0.421554
2.93 0.380772
2.94 0.340376
2.95 0.302119
2.96 0.267288
2.97 0.236987
2.98 0.212475
2.99 0.193618
3 0.181406
3.01 0.175021
3.02 0.174167
3.03 0.17822
3.04 0.185733
3.05 0.195832
3.06 0.206802
3.07 0.217296
3.08 0.225669
3.09 0.230851
3.1 0.2309
3.11 0.225393
3.12 0.213175
3.13 0.193569
3.14 0.16698
3.15 0.132332
3.16 0.0911733
3.17 0.043627
3.18 -0.00922207
3.19 -0.0659504
3.2 -0.12559
3.21 -0.186297
3.22 -0.246693
3.23 -0.305184
3.24 -0.360611
3.25 -0.41113
3.26 -0.456377
3.27 -0.494982
3.28 -0.526631
3.29 -0.55134
3.3 -0.568363
3.31 -0.578977
3.32 -0.583041
3.33 -0.58177
3.34 -0.576154
3.35 -0.567032
3.36 -0.55592
3.37 -0.543795
3.38 -0.531893
3.39 -0.52113
3.4 -0.51253
3.41 -0.506427
3.42 -0.503559
3.43 -0.50376
3.44 -0.50694
3.45 -0.512806
3.46 -0.520472
3.47 -0.529243
3.48 -0.537935
3.49 -0.545449
3.5 -0.550373
3.51 -0.551837
3.52 -0.548
3.53 -0.538416
3.54 -0.521926
3.55 -0.49763
3.56 -0.46584
3.57 -0.425174
3.58 -0.376975
3.59 -0.321122
3.6 -0.258381
3.61 -0.190182
3.62 -0.117039
3.63 -0.0410629
3.64 0.0364985
3.65 0.113859
3.66 0.189554
3.67 0.261484
3.68 0.328683
3.69 0.389314
3.7 0.442294
3.71 0.487104
3.72 0.521898
3.73 0.547555
3.74 0.562897
3.75 0.568493
3.76 0.564929
3.77 0.551867
3.78 0.531191
3.79 0.50293
3.8 0.468625
3.81 0.429331
3.82 0.385863
3.83 0.339723
3.84 0.291659
3.85 0.242811
3.86 0.193951
3.87 0.145884
3.88 0.0990646
3.89 0.0541522
3.9 0.0113003
3.91 -0.0292443
3.92 -0.0672359
3.93 -0.102894
3.94 -0.135885
3.95 -0.166532
3.96 -0.194765
3.97 -0.220516
3.98 -0.243992
3.99 -0.264753
4 -0.282997
4.01 -0.298383
4.02 -0.310593
4.03 -0.319642
4.04 -0.324641
4.05 -0.325833
4.06 -0.322616
4.07 -0.314709
4.08 -0.302276
4.09 -0.284478
4.1 -0.262077
4.11 -0.234761
4.12 -0.202911
4.13 -0.16714
4.14 -0.127532
4.15 -0.0852554
4.16 -0.0408167
4.17 0.00476841
4.18 0.050606
4.19 0.0956155
4.2 0.138974
4.21 0.179541
4.22 0.216552
4.23 0.249392
4.24 0.276942
4.25 0.299397
4.26 0.315832
4.27 0.326553
4.28 0.331659
4.29 0.331007
4.3 0.325658
4.31 0.315624
4.32 0.302048
4.33 0.285637
4.34 0.267193
4.35 0.247758
4.36 0.228146
4.37 0.209226
4.38 0.191715
4.39 0.176372
4.4 0.163429
4.41 0.153618
4.42 0.146744
4.43 0.142951
4.44 0.142137
4.45 0.143751
4.46 0.147674
4.47 0.153053
4.48 0.159385
4.49 0.165945
4.5 0.172109
4.51 0.17705
4.52 0.180353
4.53 0.181379
4.54 0.179712
4.55 0.175283
4.56 0.167531
4.57 0.156939
4.58 0.143394
4.59 0.127309
4.6 0.109201
4.61 0.0894346
4.62 0.0688369
4.63 0.0480135
4.64 0.0277387
4.65 0.00864446
4.66 -0.00835744
4.67 -0.0229301
4.68 -0.0342268
4.69 -0.0419716
4.7 -0.0459142
4.71 -0.0454759
4.72 -0.0411
4.73 -0.0323422
4.74 -0.0197096
4.75 -0.00344505
4.76 0.0163022
4.77 0.0387427
4.78 0.0637189
4.79 0.0904693
4.8 0.118548
4.81 0.147465
4.82 0.176706
4.83 0.205857
4.84 0.234566
4.85 0.262547
4.86 0.289535
4.87 0.315497
4.88 0.340187
4.89 0.363744
4.9 0.386126
4.91 0.407378
4.92 0.427666
4.93 0.446918
4.94 0.465337
4.95 0.482887
4.96 0.499561
4.97 0.515373
4.98 0.530057
4.99 0.543607
5 0.555698
5.01 0.566061
5.02 0.574515
5.03 0.580401
5.04 0.583719
5.05 0.583855
5.06 0.580552
5.07 0.573678
5.08 0.56251
5.09 0.547417
5.1 0.527845
5.11 0.503981
5.12 0.475982
5.13 0.443595
5.14 0.407577
5.15 0.367823
5.16 0.324997
5.17 0.279545
5.18 0.231824
5.19 0.182605
5.2 0.132294
5.21 0.0815709
5.22 0.0309438
5.23 -0.0189905
5.24 -0.0678592
5.25 -0.115047
5.26 -0.160336
5.27 -0.203389
5.28 -0.24384
5.29 -0.281795
5.3 -0.31677
5.31 -0.34906
5.32 -0.378549
5.33 -0.405215
5.34 -0.429397
5.35 -0.450827
5.36 -0.469982
5.37 -0.486833
5.38 -0.501492
5.39 -0.514241
5.4 -0.524876
5.41 -0.533773
5.42 -0.540843
5.43 -0.546138
5.44 -0.549803
5.45 -0.551601
5.46 -0.551798
5.47 -0.550242
5.48 -0.546981
5.49 -0.542122
5.5 -0.535492
5.51 -0.527383
5.52 -0.517717
5.53 -0.506673
5.54 -0.49442
5.55 -0.481006
5.56 -0.466752
5.57 -0.451773
5.58 -0.436341
5.59 -0.420676
5.6 -0.405019
5.61 -0.389584
5.62 -0.37463
5.63 -0.360336
5.64 -0.346869
5.65 -0.334472
5.66 -0.323146
5.67 -0.313141
5.68 -0.304414
5.69 -0.297022
5.7 -0.291056
5.71 -0.286354
5.72 -0.283054
5.73 -0.280953
5.74 -0.280025
5.75 -0.280221
5.76 -0.281346
5.77 -0.283427
5.78 -0.28624
5.79 -0.289719
5.8 -0.293746
5.81 -0.298162
5.82 -0.30288
5.83 -0.307716
5.84 -0.312533
5.85 -0.317147
5.86 -0.321413
5.87 -0.325044
5.88 -0.327918
5.89 -0.329743
5.9 -0.330269
5.91 -0.329354
5.92 -0.326498
5.93 -0.321728
5.94 -0.314619
5.95 -0.305015
5.96 -0.29287
5.97 -0.277712
5.98 -0.259858
5.99 -0.238996
6 -0.215321
6.01 -0.189033
6.02 -0.160093
6.03 -0.129107
6.04 -0.0962148
6.05 -0.0620057
6.06 -0.026963
6.07 0.00834597
6.08 0.0433218
6.09 0.0772573
6.1 0.109573
6.11 0.139687
6.12 0.166793
6.13 0.19073
6.14 0.21058
6.15 0.226362
6.16 0.237746
6.17 0.244375
6.18 0.246735
6.19 0.244357
6.2 0.238044
6.21 0.228011
6.22 0.214721
6.23 0.199052
6.24 0.181444
6.25 0.162936
6.26 0.144265
6.27 0.126364
6.28 0.109915
6.29 0.0960803
6.3 0.0852271
6.31 0.0782208
6.32 0.0756374
6.33 0.0775207
6.34 0.0848769
6.35 0.0970368
6.36 0.114403
6.37 0.136647
6.38 0.163172
6.39 0.193981
6.4 0.22788
6.41 0.264443
6.42 0.302679
6.43 0.341712
6.44 0.380569
6.45 0.418368
6.46 0.454044
6.47 0.486777
6.48 0.515888
6.49 0.5402
6.5 0.559715
6.51 0.573334
6.52 0.581097
6.53 0.582832
6.54 0.577985
6.55 0.56737
6.56 0.550451
6.57 0.528113
6.58 0.500696
6.59 0.4685
6.6 0.432602
6.61 0.393222
6.62 0.351446
6.63 0.307888
6.64 0.263291
6.65 0.218408
6.66 0.173948
6.67 0.130501
6.68 0.0886497
6.69 0.0489776
6.7 0.0116581
6.71 -0.0225592
6.72 -0.0538373
6.73 -0.0818183
6.74 -0.106387
6.75 -0.127818
6.76 -0.145646
6.77 -0.160513
6.78 -0.172313
6.79 -0.181295
6.8 -0.18785
6.81 -0.191903
6.82 -0.194054
6.83 -0.194371
6.84 -0.193174
6.85 -0.190755
6.86 -0.187213
6.87 -0.182893
6.88 -0.177893
6.89 -0.172413
6.9 -0.166593
6.91 -0.160527
6.92 -0.154339
6.93 -0.148098
6.94 -0.141878
6.95 -0.135732
6.96 -0.129728
6.97 -0.123894
6.98 -0.118303
6.99 -0.112987
7 -0.107997
7.01 -0.103417
7.02 -0.0992567
7.03 -0.095639
7.04 -0.092578
7.05 -0.0901414
7.06 -0.088425
7.07 -0.0873986
7.08 -0.0872024
7.09 -0.0877699
7.1 -0.089134
7.11 -0.0913032
7.12 -0.0941625
7.13 -0.0977413
7.14 -0.101854
7.15 -0.106413
7.16 -0.111261
7.17 -0.116214
7.18 -0.121062
7.19 -0.125603
7.2 -0.129592
7.21 -0.132771
7.22 -0.13499
7.23 -0.13583
7.24 -0.135276
7.25 -0.133012
7.26 -0.128891
7.27 -0.122911
7.28 -0.114716
7.29 -0.104576
7.3 -0.092313
7.31 -0.0780778
7.32 -0.0620712
7.33 -0.0442896
7.34 -0.0251897
7.35 -0.00491414
7.36 0.0161338
7.37 0.0376088
7.38 0.059121
7.39 0.0802918
7.4 0.100668
7.41 0.119894
7.42 0.137642
7.43 0.153412
7.44 0.167157
7.45 0.178359
7.46 0.18704
7.47 0.193066
7.48 0.196217
7.49 0.196824
7.5 0.19464
7.51 0.190106
7.52 0.183372
7.53 0.174653
7.54 0.16445
7.55 0.152952
7.56 0.140706
7.57 0.128064
7.58 0.115466
7.59 0.103263
7.6 0.0919394
7.61 0.0817173
7.62 0.0729451
7.63 0.0658968
7.64 0.0605829
7.65 0.05742
7.66 0.0561411
7.67 0.0568809
7.68 0.0595282
7.69 0.0638158
7.7 0.0697555
7.71 0.0768658
7.72 0.08497
7.73 0.0936967
7.74 0.102706
7.75 0.111631
7.76 0.120146
7.77 0.127866
7.78 0.134483
7.79 0.13977
7.8 0.143283
7.81 0.145038
7.82 0.144652
7.83 0.14211
7.84 0.137374
7.85 0.130196
7.86 0.120875
7.87 0.109197
7.88 0.0954291
7.89 0.0796881
7.9 0.0620032
7.91 0.0427643
7.92 0.021987
7.93 4.23042e-05
7.94 -0.0228655
7.95 -0.0465097
7.96 -0.0705758
7.97 -0.0948388
7.98 -0.119011
7.99 -0.142847
8 -0.166056
8.01 -0.18848
8.02 -0.209745
8.03 -0.229775
8.04 -0.248322
8.05 -0.265165
8.06 -0.280327
8.07 -0.293405
8.08 -0.304594
8.09 -0.31371
8.1 -0.320726
8.11 -0.325831
8.12 -0.328779
8.13 -0.329978
8.14 -0.329398
8.15 -0.327242
8.16 -0.323781
8.17 -0.319072
8.18 -0.313514
8.19 -0.307257
8.2 -0.300579
8.21 -0.293707
8.22 -0.286858
8.23 -0.280204
8.24 -0.273915
8.25 -0.268084
8.26 -0.262743
8.27 -0.257941
8.28 -0.253553
8.29 -0.249503
8.3 -0.245582
8.31 -0.241579
8.32 -0.237175
8.33 -0.232125
8.34 -0.225989
8.35 -0.218491
8.36 -0.209302
8.37 -0.197935
8.38 -0.184356
8.39 -0.167993
8.4 -0.148919
8.41 -0.126965
8.42 -0.101956
8.43 -0.0742622
8.44 -0.0436663
8.45 -0.0107509
8.46 0.0242529
8.47 0.060928
8.48 0.0986552
8.49 0.136952
8.5 0.17512
8.51 0.212535
8.52 0.248466
8.53 0.28247
8.54 0.313536
8.55 0.341533
8.56 0.365761
8.57 0.385823
8.58 0.40178
8.59 0.412815
8.6 0.419598
8.61 0.421825
8.62 0.419824
8.63 0.414131
8.64 0.40474
8.65 0.39266
8.66 0.378205
8.67 0.362144
8.68 0.345141
8.69 0.32784
8.7 0.310889
8.71 0.294929
8.72 0.280454
8.73 0.267825
8.74 0.257595
8.75 0.249672
8.76 0.244433
8.77 0.241653
8.78 0.24118
8.79 0.242893
8.8 0.246198
8.81 0.250818
8.82 0.256096
8.83 0.261513
8.84 0.266414
8.85 0.270313
8.86 0.272453
8.87 0.272485
8.88 0.269923
8.89 0.26426
8.9 0.255566
8.91 0.243225
8.92 0.227638
8.93 0.208732
8.94 0.18666
8.95 0.162001
8.96 0.134821
8.97 0.105963
8.98 0.0758619
8.99 0.045192
9 0.0145768
9.01 -0.015217
9.02 -0.0436793
9.03 -0.0701144
9.04 -0.0939545
9.05 -0.114953
9.06 -0.132249
9.07 -0.146083
9.08 -0.155942
9.09 -0.161855
9.1 -0.164049
9.11 -0.162204
9.12 -0.157077
9.13 -0.148635
9.14 -0.137435
9.15 -0.123968
9.16 -0.108536
9.17 -0.0918666
9.18 -0.0743447
9.19 -0.056553
9.2 -0.0389351
9.21 -0.0220096
9.22 -0.00606654
9.23 0.00841412
9.24 0.0212558
9.25 0.0322614
9.26 0.0411406
9.27 0.0480597
9.28 0.0527426
9.29 0.0554436
9.3 0.0562135
9.31 0.055107
9.32 0.0524775
9.33 0.0483228
9.34 0.0430239
9.35 0.0367406
9.36 0.029675
9.37 0.0220844
9.38 0.0140933
9.39 0.00591061
9.4 -0.00235107
9.41 -0.0105833
9.42 -0.0187278
9.43 -0.0267281
9.44 -0.0345981
9.45 -0.0423477
9.46 -0.0500246
9.47 -0.0576893
9.48 -0.0654265
9.49 -0.0733071
9.5 -0.081426
9.51 -0.0898652
9.52 -0.0986681
9.53 -0.107948
9.54 -0.117673
9.55 -0.127898
9.56 -0.13859
9.57 -0.149687
9.58 -0.161153
9.59 -0.17284
9.6 -0.184636
9.61 -0.196367
9.62 -0.207867
9.63 -0.218884
9.64 -0.229274
9.65 -0.238728
9.66 -0.247072
9.67 -0.254116
9.68 -0.259516
9.69 -0.263289
9.7 -0.265054
9.71 -0.264844
9.72 -0.26256
9.73 -0.25802
9.74 -0.251472
9.75 -0.242696
9.76 -0.232024
9.77 -0.219551
9.78 -0.205428
9.79 -0.190053
9.8 -0.173569
9.81 -0.156441
9.82 -0.138976
9.83 -0.12158
9.84 -0.104593
9.85 -0.0885085
9.86 -0.0735785
9.87 -0.0602044
9.88 -0.0487393
9.89 -0.0392555
9.9 -0.0323258
9.91 -0.0277318
9.92 -0.0257531
9.93 -0.0263917
9.94 -0.0294208
9.95 -0.0350686
9.96 -0.0427882
9.97 -0.0525415
9.98 -0.0639668
9.99 -0.0766766
10 -0.0904226
10.01 -0.104694
10.02 -0.119152
10.03 -0.133373
10.04 -0.147027
10.05 -0.15965
10.06 -0.171076
10.07 -0.180892
10.08 -0.188957
10.09 -0.195153
10.1 -0.199181
10.11 -0.201252
10.12 -0.201123
10.13 -0.199009
10.14 -0.195001
10.15 -0.189103
10.16 -0.181678
10.17 -0.172714
10.18 -0.162545
10.19 -0.151328
10.2 -0.139212
10.21 -0.126449
10.22 -0.113112
10.23 -0.0993936
10.24 -0.085375
10.25 -0.0711296
10.26 -0.0567254
10.27 -0.0421697
10.28 -0.0274906
10.29 -0.0126787
10.3 0.00227871
10.31 0.0173764
10.32 0.0326386
10.33 0.0480311
10.34 0.0635335
10.35 0.0790869
10.36 0.0946165
10.37 0.109995
10.38 0.125112
10.39 0.139792
10.4 0.153848
10.41 0.167152
10.42 0.179371
10.43 0.190466
10.44 0.200147
10.45 0.208286
10.46 0.214837
10.47 0.219498
10.48 0.22247
10.49 0.223574
10.5 0.222955
10.51 0.220764
10.52 0.217017
10.53 0.212106
10.54 0.206152
10.55 0.199519
10.56 0.192496
10.57 0.185406
10.58 0.178551
10.59 0.172278
10.6 0.166824
10.61 0.162405
10.62 0.159296
10.63 0.157464
10.64 0.157143
10.65 0.158172
10.66 0.160501
10.67 0.164021
10.68 0.16841
10.69 0.173488
10.7 0.178852
10.71 0.184176
10.72 0.189044
10.73 0.193156
10.74 0.195981
10.75 0.197337
10.76 0.196849
10.77 0.194221
10.78 0.189476
10.79 0.182142
10.8 0.172558
10.81 0.160594
10.82 0.146405
10.83 0.130342
10.84 0.112437
10.85 0.0932886
10.86 0.0731626
10.87 0.0525389
10.88 0.0318457
10.89 0.0115917
10.9 -0.00785515
10.91 -0.0259955
10.92 -0.042473
10.93 -0.0570549
10.94 -0.06921
10.95 -0.0790526
10.96 -0.0861829
10.97 -0.0906759
10.98 -0.0925918
10.99 -0.0917552
11 -0.088618
11.01 -0.0830846
11.02 -0.0755509
11.03 -0.0662554
11.04 -0.0553646
11.05 -0.0433213
11.06 -0.0302743
11.07 -0.0165928
11.08 -0.00250767
11.09 0.0117393
11.1 0.0259351
11.11 0.0398696
11.12 0.0534056
11.13 0.0664042
11.14 0.0787163
11.15 0.0903228
11.16 0.101026
11.17 0.110855
11.18 0.119697
11.19 0.127447
11.2 0.134133
11.21 0.139486
11.22 0.143587
11.23 0.146249
11.24 0.147342
11.25 0.146897
11.26 0.144532
11.27 0.140427
11.28 0.134349
11.29 0.126252
11.3 0.116244
11.31 0.104051
11.32 0.0900268
11.33 0.0740902
11.34 0.056453
11.35 0.0373786
11.36 0.0169675
11.37 -0.0043188
11.38 -0.0262361
11.39 -0.048366
11.4 -0.0703487
11.41 -0.0917125
11.42 -0.112155
11.43 -0.131174
11.44 -0.148477
11.45 -0.163798
11.46 -0.176654
11.47 -0.187141
11.48 -0.194811
11.49 -0.199808
11.5 -0.20213
11.51 -0.201676
11.52 -0.198894
11.53 -0.193704
11.54 -0.186611
11.55 -0.177877
11.56 -0.167813
11.57 -0.156901
11.58 -0.145445
11.59 -0.133889
11.6 -0.122567
11.61 -0.111851
11.62 -0.101938
11.63 -0.0932121
11.64 -0.0857013
11.65 -0.0795791
11.66 -0.0749206
11.67 -0.0715829
11.68 -0.0696958
11.69 -0.0689319
11.7 -0.0692123
11.71 -0.0703119
11.72 -0.0719639
11.73 -0.0739767
11.74 -0.0760588
11.75 -0.0779888
11.76 -0.0795373
11.77 -0.0805591
11.78 -0.080805
11.79 -0.0802711
11.8 -0.0788073
11.81 -0.0764133
11.82 -0.0731384
11.83 -0.0689309
11.84 -0.0639881
11.85 -0.0583357
11.86 -0.0521401
11.87 -0.0455369
11.88 -0.03864
11.89 -0.0316097
11.9 -0.0245547
11.91 -0.0175849
11.92 -0.010775
11.93 -0.00420405
11.94 0.00212422
11.95 0.00816848
11.96 0.0139654
11.97 0.0195414
11.98 0.0249326
11.99 0.0302076
12 0.0354105
12.01 0.0406013
12.02 0.0458189
12.03 0.0510952
12.04 0.0564322
12.05 0.0618242
12.06 0.0672271
12.07 0.0725838
12.08 0.0778008
12.09 0.0827987
12.1 0.087409
12.11 0.091552
12.12 0.0950695
12.13 0.0978108
12.14 0.0997322
12.15 0.100573
12.16 0.100402
12.17 0.0990766
12.18 0.0965705
12.19 0.0929675
12.2 0.0881416
12.21 0.0823319
12.22 0.0755422
12.23 0.0679324
12.24 0.0596798
12.25 0.0508902
12.26 0.0418059
12.27 0.0325765
12.28 0.0233956
12.29 0.0144117
12.3 0.00581751
12.31 -0.0023146
12.32 -0.00982709
12.33 -0.0166769
12.34 -0.0228353
12.35 -0.0282188
12.36 -0.03293
12.37 -0.0369217
12.38 -0.0403025
12.39 -0.0431352
12.4 -0.0454641
12.41 -0.0474185
12.42 -0.0490281
12.43 -0.0503909
12.44 -0.0515505
12.45 -0.0525334
12.46 -0.0533711
12.47 -0.0540354
12.48 -0.0545162
12.49 -0.0547636
12.5 -0.0547008
12.51 -0.0542925
12.52 -0.0533997
12.53 -0.0520027
12.54 -0.0500078
12.55 -0.0473398
12.56 -0.0440249
12.57 -0.0399431
12.58 -0.035213
12.59 -0.0298313
12.6 -0.0238806
12.61 -0.017503
12.62 -0.0107884
12.63 -0.00394788
12.64 0.00285117
12.65 0.00939547
12.66 0.0155197
12.67 0.0209332
12.68 0.0255508
12.69 0.029127
12.7 0.0315437
12.71 0.0327602
12.72 0.0325553
12.73 0.0310989
12.74 0.028287
12.75 0.0242687
12.76 0.0191945
12.77 0.0131483
12.78 0.00644985
12.79 -0.000728327
12.8 -0.00807729
12.81 -0.0153401
12.82 -0.0221908
12.83 -0.0284197
12.84 -0.0336748
12.85 -0.0377921
12.86 -0.0405825
12.87 -0.0417819
12.88 -0.0414642
12.89 -0.0393605
12.9 -0.0356367
12.91 -0.0302984
12.92 -0.0233749
