# == pyFAI calibration ==
# Distance Sample to Detector: 0.10401047200818728 m
# PONI: 2.723e-01, 1.277e-01 m
# Rotations: -0.007054 -0.003206 0.000160 rad
# 
# == Fit2d calibration ==
# Distance Sample-beamCenter: 104.014 mm
# Center: x=746.682, y=1580.912 pix
# Tilt: 0.444 deg  TiltPlanRot: -24.440 deg
# 
# Detector Pilatus CdTe 2M	 PixelSize= 1.720e-04, 1.720e-04 m
#    Detector has a mask: True 
#    Detector has a dark current: False 
#    detector has a flat field: False 
# 
# Wavelength: 3.5410000000000004e-11 m
# Mask applied: from detector
# Dark current applied: False
# Flat field applied: False
# Polarization factor: 0.99
# Normalization factor: 1.0
# --> C:/Users/au714043/OneDrive - Aarhus Universitet/Desktop/pyfai_notebook/npy/scan-0921_avg.dat
#        q_A^-1             I 
  5.250000e-03             0
  1.575000e-02             0
  2.625000e-02             0
  3.675000e-02             0
  4.725000e-02             0
  5.775000e-02             0
  6.825000e-02             0
  7.875000e-02             0
  8.925000e-02             0
  9.975000e-02             0
  1.102500e-01             0
  1.207500e-01             0
  1.312500e-01             0
  1.417500e-01             0
  1.522500e-01             0
  1.627500e-01             0
  1.732500e-01             0
  1.837500e-01             0
  1.942500e-01             0
  2.047500e-01             0
  2.152500e-01             0
  2.257500e-01             0
  2.362500e-01             0
  2.467500e-01             0
  2.572500e-01             0
  2.677500e-01             0
  2.782500e-01             0
  2.887500e-01             0
  2.992500e-01             0
  3.097500e-01             0
  3.202500e-01             0
  3.307500e-01             0
  3.412500e-01             0
  3.517500e-01             0
  3.622500e-01             0
  3.727500e-01             0
  3.832500e-01             0
  3.937500e-01             0
  4.042500e-01             0
  4.147500e-01             0
  4.252500e-01             0
  4.357500e-01             0
  4.462500e-01             0
  4.567500e-01             0
  4.672500e-01             0
  4.777500e-01             0
  4.882500e-01             0
  4.987500e-01             0
  5.092500e-01             0
  5.197500e-01             0
  5.302500e-01             0
  5.407500e-01             0
  5.512500e-01             0
  5.617500e-01             0
  5.722500e-01             0
  5.827500e-01             0
  5.932500e-01             0
  6.037500e-01             0
  6.142500e-01             0
  6.247500e-01             0
  6.352500e-01             0
  6.457500e-01             0
  6.562500e-01             0
  6.667500e-01             0
  6.772500e-01             0
  6.877500e-01             0
  6.982500e-01             0
  7.087500e-01             0
  7.192500e-01             0
  7.297500e-01             0
  7.402500e-01             0
  7.507500e-01             0
  7.612500e-01             0
  7.717500e-01             0
  7.822500e-01             0
  7.927500e-01             0
  8.032500e-01             0
  8.137500e-01             0
  8.242500e-01             0
  8.347500e-01             0
  8.452500e-01             0
  8.557500e-01             0
  8.662500e-01             0
  8.767500e-01             0
  8.872500e-01             0
  8.977500e-01             0
  9.082500e-01             0
  9.187500e-01             0
  9.292500e-01             0
  9.397500e-01             0
  9.502500e-01             0
  9.607500e-01             0
  9.712500e-01             0
  9.817500e-01             0
  9.922500e-01             0
  1.002750e+00             0
  1.013250e+00             0
  1.023750e+00             0
  1.034250e+00             0
  1.044750e+00             0
  1.055250e+00             0
  1.065750e+00             0
  1.076250e+00    4.906794e+03
  1.086750e+00    4.995746e+03
  1.097250e+00    5.065258e+03
  1.107750e+00    5.245342e+03
  1.118250e+00    5.322545e+03
  1.128750e+00    5.363814e+03
  1.139250e+00    5.387283e+03
  1.149750e+00    5.411220e+03
  1.160250e+00    5.474554e+03
  1.170750e+00    5.485693e+03
  1.181250e+00    5.497901e+03
  1.191750e+00    5.607816e+03
  1.202250e+00    5.622633e+03
  1.212750e+00    5.641539e+03
  1.223250e+00    5.730694e+03
  1.233750e+00    5.686127e+03
  1.244250e+00    5.787534e+03
  1.254750e+00    5.763698e+03
  1.265250e+00    5.736639e+03
  1.275750e+00    5.788508e+03
  1.286250e+00    5.794801e+03
  1.296750e+00    5.815087e+03
  1.307250e+00    5.846434e+03
  1.317750e+00    5.829263e+03
  1.328250e+00    5.792705e+03
  1.338750e+00    5.825249e+03
  1.349250e+00    5.853348e+03
  1.359750e+00    5.842083e+03
  1.370250e+00    6.047129e+03
  1.380750e+00    6.262659e+03
  1.391250e+00    7.220122e+03
  1.401750e+00    9.458857e+03
  1.412250e+00    1.406652e+04
  1.422750e+00    1.738983e+04
  1.433250e+00    2.576196e+04
  1.443750e+00    3.197325e+04
  1.454250e+00    3.995784e+04
  1.464750e+00    4.349128e+04
  1.475250e+00    4.885035e+04
  1.485750e+00    5.198093e+04
  1.496250e+00    5.480915e+04
  1.506750e+00    5.389545e+04
  1.517250e+00    5.198495e+04
  1.527750e+00    5.217941e+04
  1.538250e+00    5.071775e+04
  1.548750e+00    4.699111e+04
  1.559250e+00    4.123022e+04
  1.569750e+00    3.702358e+04
  1.580250e+00    3.005223e+04
  1.590750e+00    2.104138e+04
  1.601250e+00    1.498070e+04
  1.611750e+00    1.098600e+04
  1.622250e+00    7.165379e+03
  1.632750e+00    5.776258e+03
  1.643250e+00    5.129305e+03
  1.653750e+00    4.876001e+03
  1.664250e+00    4.714886e+03
  1.674750e+00    4.629545e+03
  1.685250e+00    4.625067e+03
  1.695750e+00    4.561169e+03
  1.706250e+00    4.543018e+03
  1.716750e+00    4.567708e+03
  1.727250e+00    4.502044e+03
  1.737750e+00    4.523289e+03
  1.748250e+00    4.512865e+03
  1.758750e+00    4.477337e+03
  1.769250e+00    4.504697e+03
  1.779750e+00    4.489799e+03
  1.790250e+00    4.472456e+03
  1.800750e+00    4.496132e+03
  1.811250e+00    4.437827e+03
  1.821750e+00    4.461225e+03
  1.832250e+00    4.439800e+03
  1.842750e+00    4.439566e+03
  1.853250e+00    4.417908e+03
  1.863750e+00    4.400963e+03
  1.874250e+00    4.338505e+03
  1.884750e+00    4.361359e+03
  1.895250e+00    4.305762e+03
  1.905750e+00    4.282152e+03
  1.916250e+00    4.246813e+03
  1.926750e+00    4.199500e+03
  1.937250e+00    4.151428e+03
  1.947750e+00    4.146476e+03
  1.958250e+00    4.132806e+03
  1.968750e+00    4.117683e+03
  1.979250e+00    4.144713e+03
  1.989750e+00    4.238983e+03
  2.000250e+00    4.519633e+03
  2.010750e+00    5.523557e+03
  2.021250e+00    7.982891e+03
  2.031750e+00    1.081965e+04
  2.042250e+00    1.869993e+04
  2.052750e+00    3.004607e+04
  2.063250e+00    3.848023e+04
  2.073750e+00    5.112349e+04
  2.084250e+00    6.448777e+04
  2.094750e+00    7.673101e+04
  2.105250e+00    8.293852e+04
  2.115750e+00    8.837773e+04
  2.126250e+00    8.880952e+04
  2.136750e+00    9.237688e+04
  2.147250e+00    8.670749e+04
  2.157750e+00    8.902678e+04
  2.168250e+00    7.827396e+04
  2.178750e+00    7.374597e+04
  2.189250e+00    6.473360e+04
  2.199750e+00    5.399105e+04
  2.210250e+00    4.354396e+04
  2.220750e+00    3.149322e+04
  2.231250e+00    1.825562e+04
  2.241750e+00    1.176161e+04
  2.252250e+00    6.681038e+03
  2.262750e+00    4.569945e+03
  2.273250e+00    3.682350e+03
  2.283750e+00    3.367052e+03
  2.294250e+00    3.206100e+03
  2.304750e+00    3.120291e+03
  2.315250e+00    3.048571e+03
  2.325750e+00    3.025289e+03
  2.336250e+00    2.986342e+03
  2.346750e+00    2.968122e+03
  2.357250e+00    2.952200e+03
  2.367750e+00    2.929011e+03
  2.378250e+00    2.919518e+03
  2.388750e+00    2.919192e+03
  2.399250e+00    2.879239e+03
  2.409750e+00    2.892240e+03
  2.420250e+00    2.886178e+03
  2.430750e+00    2.879151e+03
  2.441250e+00    2.878307e+03
  2.451750e+00    2.899547e+03
  2.462250e+00    2.931954e+03
  2.472750e+00    3.022751e+03
  2.483250e+00    3.182374e+03
  2.493750e+00    3.648832e+03
  2.504250e+00    4.950253e+03
  2.514750e+00    6.769385e+03
  2.525250e+00    9.889333e+03
  2.535750e+00    1.526269e+04
  2.546250e+00    2.187461e+04
  2.556750e+00    2.507380e+04
  2.567250e+00    2.989477e+04
  2.577750e+00    3.661333e+04
  2.588250e+00    3.811880e+04
  2.598750e+00    4.053223e+04
  2.609250e+00    4.252270e+04
  2.619750e+00    4.360536e+04
  2.630250e+00    4.149546e+04
  2.640750e+00    4.218110e+04
  2.651250e+00    3.826954e+04
  2.661750e+00    3.410603e+04
  2.672250e+00    3.013544e+04
  2.682750e+00    2.464378e+04
  2.693250e+00    1.990197e+04
  2.703750e+00    1.513506e+04
  2.714250e+00    9.182735e+03
  2.724750e+00    5.759696e+03
  2.735250e+00    4.200570e+03
  2.745750e+00    3.267065e+03
  2.756250e+00    2.968384e+03
  2.766750e+00    2.856675e+03
  2.777250e+00    2.802149e+03
  2.787750e+00    2.766185e+03
  2.798250e+00    2.751561e+03
  2.808750e+00    2.735470e+03
  2.819250e+00    2.740448e+03
  2.829750e+00    2.734182e+03
  2.840250e+00    2.739138e+03
  2.850750e+00    2.747592e+03
  2.861250e+00    2.751563e+03
  2.871750e+00    2.787684e+03
  2.882250e+00    2.906430e+03
  2.892750e+00    2.977260e+03
  2.903250e+00    3.529911e+03
  2.913750e+00    4.484500e+03
  2.924250e+00    6.313038e+03
  2.934750e+00    8.295943e+03
  2.945250e+00    1.020427e+04
  2.955750e+00    1.382961e+04
  2.966250e+00    1.767538e+04
  2.976750e+00    1.727830e+04
  2.987250e+00    1.957860e+04
  2.997750e+00    2.133663e+04
  3.008250e+00    2.267731e+04
  3.018750e+00    2.449654e+04
  3.029250e+00    2.675272e+04
  3.039750e+00    2.357686e+04
  3.050250e+00    2.171496e+04
  3.060750e+00    2.124180e+04
  3.071250e+00    1.856649e+04
  3.081750e+00    1.581400e+04
  3.092250e+00    1.325235e+04
  3.102750e+00    1.056003e+04
  3.113250e+00    8.350847e+03
  3.123750e+00    5.491957e+03
  3.134250e+00    4.476970e+03
  3.144750e+00    3.372961e+03
  3.155250e+00    3.029486e+03
  3.165750e+00    2.866742e+03
  3.176250e+00    2.816961e+03
  3.186750e+00    2.794854e+03
  3.197250e+00    2.797080e+03
  3.207750e+00    2.798398e+03
  3.218250e+00    2.822813e+03
  3.228750e+00    2.885524e+03
  3.239250e+00    3.040537e+03
  3.249750e+00    3.465661e+03
  3.260250e+00    4.658211e+03
  3.270750e+00    6.588657e+03
  3.281250e+00    1.039033e+04
  3.291750e+00    1.485796e+04
  3.302250e+00    2.159591e+04
  3.312750e+00    2.685332e+04
  3.323250e+00    3.374768e+04
  3.333750e+00    3.780282e+04
  3.344250e+00    4.169861e+04
  3.354750e+00    4.550454e+04
  3.365250e+00    4.750001e+04
  3.375750e+00    4.856386e+04
  3.386250e+00    4.709848e+04
  3.396750e+00    4.766286e+04
  3.407250e+00    4.386234e+04
  3.417750e+00    4.180249e+04
  3.428250e+00    3.772278e+04
  3.438750e+00    3.175349e+04
  3.449250e+00    2.653495e+04
  3.459750e+00    2.012339e+04
  3.470250e+00    1.373951e+04
  3.480750e+00    9.000214e+03
  3.491250e+00    5.822438e+03
  3.501750e+00    3.926460e+03
  3.512250e+00    3.120278e+03
  3.522750e+00    2.741423e+03
  3.533250e+00    2.614001e+03
  3.543750e+00    2.575848e+03
  3.554250e+00    2.592852e+03
  3.564750e+00    2.672595e+03
  3.575250e+00    3.021437e+03
  3.585750e+00    3.765261e+03
  3.596250e+00    4.725974e+03
  3.606750e+00    7.057121e+03
  3.617250e+00    9.267315e+03
  3.627750e+00    1.304974e+04
  3.638250e+00    1.570202e+04
  3.648750e+00    2.004046e+04
  3.659250e+00    2.130715e+04
  3.669750e+00    2.390459e+04
  3.680250e+00    2.576229e+04
  3.690750e+00    2.565194e+04
  3.701250e+00    2.679707e+04
  3.711750e+00    2.629292e+04
  3.722250e+00    2.606922e+04
  3.732750e+00    2.422547e+04
  3.743250e+00    2.230397e+04
  3.753750e+00    1.986943e+04
  3.764250e+00    1.661031e+04
  3.774750e+00    1.378786e+04
  3.785250e+00    9.200660e+03
  3.795750e+00    6.453915e+03
  3.806250e+00    4.889570e+03
  3.816750e+00    3.728708e+03
  3.827250e+00    2.814872e+03
  3.837750e+00    2.548790e+03
  3.848250e+00    2.432789e+03
  3.858750e+00    2.395990e+03
  3.869250e+00    2.356306e+03
  3.879750e+00    2.338515e+03
  3.890250e+00    2.331447e+03
  3.900750e+00    2.325123e+03
  3.911250e+00    2.313749e+03
  3.921750e+00    2.320865e+03
  3.932250e+00    2.304997e+03
  3.942750e+00    2.308391e+03
  3.953250e+00    2.302245e+03
  3.963750e+00    2.297700e+03
  3.974250e+00    2.311501e+03
  3.984750e+00    2.292438e+03
  3.995250e+00    2.306275e+03
  4.005750e+00    2.302816e+03
  4.016250e+00    2.297401e+03
  4.026750e+00    2.298810e+03
  4.037250e+00    2.298520e+03
  4.047750e+00    2.295349e+03
  4.058250e+00    2.305436e+03
  4.068750e+00    2.294623e+03
  4.079250e+00    2.294051e+03
  4.089750e+00    2.300445e+03
  4.100250e+00    2.310050e+03
  4.110750e+00    2.313705e+03
  4.121250e+00    2.321926e+03
  4.131750e+00    2.352906e+03
  4.142250e+00    2.437379e+03
  4.152750e+00    2.613035e+03
  4.163250e+00    3.029124e+03
  4.173750e+00    3.793736e+03
  4.184250e+00    4.669781e+03
  4.194750e+00    5.916463e+03
  4.205250e+00    7.283999e+03
  4.215750e+00    8.973466e+03
  4.226250e+00    9.669708e+03
  4.236750e+00    1.008836e+04
  4.247250e+00    1.133321e+04
  4.257750e+00    1.253467e+04
  4.268250e+00    1.180606e+04
  4.278750e+00    1.226795e+04
  4.289250e+00    1.187529e+04
  4.299750e+00    1.138493e+04
  4.310250e+00    1.100068e+04
  4.320750e+00    1.015464e+04
  4.331250e+00    8.536756e+03
  4.341750e+00    7.213888e+03
  4.352250e+00    5.944673e+03
  4.362750e+00    4.570341e+03
  4.373250e+00    3.761958e+03
  4.383750e+00    3.250500e+03
  4.394250e+00    2.888816e+03
  4.404750e+00    3.080387e+03
  4.415250e+00    3.734896e+03
  4.425750e+00    4.862658e+03
  4.436250e+00    6.796360e+03
  4.446750e+00    9.527604e+03
  4.457250e+00    1.358778e+04
  4.467750e+00    1.752843e+04
  4.478250e+00    2.202298e+04
  4.488750e+00    2.513025e+04
  4.499250e+00    2.827616e+04
  4.509750e+00    2.971347e+04
  4.520250e+00    3.240724e+04
  4.530750e+00    3.170141e+04
  4.541250e+00    3.048049e+04
  4.551750e+00    3.028215e+04
  4.562250e+00    2.942665e+04
  4.572750e+00    2.778473e+04
  4.583250e+00    2.481107e+04
  4.593750e+00    2.011045e+04
  4.604250e+00    1.508887e+04
  4.614750e+00    1.111180e+04
  4.625250e+00    7.988516e+03
  4.635750e+00    5.939554e+03
  4.646250e+00    4.820004e+03
  4.656750e+00    3.992424e+03
  4.667250e+00    4.105941e+03
  4.677750e+00    5.285492e+03
  4.688250e+00    6.467230e+03
  4.698750e+00    9.246620e+03
  4.709250e+00    1.241558e+04
  4.719750e+00    1.548296e+04
  4.730250e+00    1.768639e+04
  4.740750e+00    2.092364e+04
  4.751250e+00    2.283562e+04
  4.761750e+00    2.287524e+04
  4.772250e+00    2.274530e+04
  4.782750e+00    2.225093e+04
  4.793250e+00    2.365959e+04
  4.803750e+00    2.116421e+04
  4.814250e+00    2.064744e+04
  4.824750e+00    1.874507e+04
  4.835250e+00    1.594911e+04
  4.845750e+00    1.301807e+04
  4.856250e+00    9.672603e+03
  4.866750e+00    7.055337e+03
  4.877250e+00    5.530298e+03
  4.887750e+00    4.494215e+03
  4.898250e+00    4.162735e+03
  4.908750e+00    4.203118e+03
  4.919250e+00    4.789494e+03
  4.929750e+00    6.237319e+03
  4.940250e+00    8.088045e+03
  4.950750e+00    9.758104e+03
  4.961250e+00    1.144694e+04
  4.971750e+00    1.341967e+04
  4.982250e+00    1.429566e+04
  4.992750e+00    1.570761e+04
  5.003250e+00    1.549562e+04
  5.013750e+00    1.561378e+04
  5.024250e+00    1.523783e+04
  5.034750e+00    1.496048e+04
  5.045250e+00    1.467564e+04
  5.055750e+00    1.320721e+04
  5.066250e+00    1.183766e+04
  5.076750e+00    9.465115e+03
  5.087250e+00    7.362121e+03
  5.097750e+00    5.655684e+03
  5.108250e+00    4.525372e+03
  5.118750e+00    3.769081e+03
  5.129250e+00    3.306579e+03
  5.139750e+00    3.096577e+03
  5.150250e+00    3.046151e+03
  5.160750e+00    3.344391e+03
  5.171250e+00    3.551033e+03
  5.181750e+00    3.886799e+03
  5.192250e+00    4.235659e+03
  5.202750e+00    4.410015e+03
  5.213250e+00    4.618715e+03
  5.223750e+00    4.839500e+03
  5.234250e+00    4.739235e+03
  5.244750e+00    4.692079e+03
  5.255250e+00    4.709017e+03
  5.265750e+00    4.516694e+03
  5.276250e+00    4.232241e+03
  5.286750e+00    4.056149e+03
  5.297250e+00    3.703860e+03
  5.307750e+00    3.352239e+03
  5.318250e+00    3.252583e+03
  5.328750e+00    3.162201e+03
  5.339250e+00    3.455637e+03
  5.349750e+00    3.631933e+03
  5.360250e+00    4.272400e+03
  5.370750e+00    5.277281e+03
  5.381250e+00    6.128742e+03
  5.391750e+00    7.957520e+03
  5.402250e+00    8.790945e+03
  5.412750e+00    9.407040e+03
  5.423250e+00    1.058599e+04
  5.433750e+00    1.063467e+04
  5.444250e+00    1.120708e+04
  5.454750e+00    1.072635e+04
  5.465250e+00    1.045078e+04
  5.475750e+00    9.687904e+03
  5.486250e+00    9.164792e+03
  5.496750e+00    8.446555e+03
  5.507250e+00    7.242960e+03
  5.517750e+00    6.085063e+03
  5.528250e+00    5.252048e+03
  5.538750e+00    4.973587e+03
  5.549250e+00    5.038787e+03
  5.559750e+00    5.843883e+03
  5.570250e+00    7.195555e+03
  5.580750e+00    9.122827e+03
  5.591250e+00    1.150074e+04
  5.601750e+00    1.447947e+04
  5.612250e+00    1.594260e+04
  5.622750e+00    1.783323e+04
  5.633250e+00    1.869733e+04
  5.643750e+00    1.910206e+04
  5.654250e+00    1.954669e+04
  5.664750e+00    1.948582e+04
  5.675250e+00    1.898863e+04
  5.685750e+00    1.817319e+04
  5.696250e+00    1.585592e+04
  5.706750e+00    1.427963e+04
  5.717250e+00    1.159625e+04
  5.727750e+00    8.194646e+03
  5.738250e+00    6.736618e+03
  5.748750e+00    5.111606e+03
  5.759250e+00    4.106668e+03
  5.769750e+00    3.517387e+03
  5.780250e+00    2.932454e+03
  5.790750e+00    2.694625e+03
  5.801250e+00    2.570767e+03
  5.811750e+00    2.526194e+03
  5.822250e+00    2.519685e+03
  5.832750e+00    2.517564e+03
  5.843250e+00    2.506976e+03
  5.853750e+00    2.508158e+03
  5.864250e+00    2.506528e+03
  5.874750e+00    2.498124e+03
  5.885250e+00    2.497496e+03
  5.895750e+00    2.502141e+03
  5.906250e+00    2.512042e+03
  5.916750e+00    2.555946e+03
  5.927250e+00    2.628831e+03
  5.937750e+00    2.800623e+03
  5.948250e+00    2.878625e+03
  5.958750e+00    3.270371e+03
  5.969250e+00    3.727849e+03
  5.979750e+00    3.712322e+03
  5.990250e+00    4.150929e+03
  6.000750e+00    4.570351e+03
  6.011250e+00    4.765962e+03
  6.021750e+00    5.051188e+03
  6.032250e+00    5.210379e+03
  6.042750e+00    5.367907e+03
  6.053250e+00    5.137006e+03
  6.063750e+00    5.348280e+03
  6.074250e+00    5.080579e+03
  6.084750e+00    4.750503e+03
  6.095250e+00    4.608042e+03
  6.105750e+00    4.321951e+03
  6.116250e+00    4.356134e+03
  6.126750e+00    4.723815e+03
  6.137250e+00    5.144769e+03
  6.147750e+00    6.440090e+03
  6.158250e+00    7.462879e+03
  6.168750e+00    9.578611e+03
  6.179250e+00    1.093715e+04
  6.189750e+00    1.254153e+04
  6.200250e+00    1.398103e+04
  6.210750e+00    1.469561e+04
  6.221250e+00    1.546213e+04
  6.231750e+00    1.545782e+04
  6.242250e+00    1.579165e+04
  6.252750e+00    1.521168e+04
  6.263250e+00    1.469902e+04
  6.273750e+00    1.253813e+04
  6.284250e+00    1.122752e+04
  6.294750e+00    9.236274e+03
  6.305250e+00    7.886295e+03
  6.315750e+00    6.995432e+03
  6.326250e+00    7.117180e+03
  6.336750e+00    7.200259e+03
  6.347250e+00    8.630960e+03
  6.357750e+00    9.363494e+03
  6.368250e+00    1.066057e+04
  6.378750e+00    1.175354e+04
  6.389250e+00    1.222568e+04
  6.399750e+00    1.284222e+04
  6.410250e+00    1.306402e+04
  6.420750e+00    1.310932e+04
  6.431250e+00    1.296262e+04
  6.441750e+00    1.223140e+04
  6.452250e+00    1.123064e+04
  6.462750e+00    9.625029e+03
  6.473250e+00    8.146924e+03
  6.483750e+00    6.782180e+03
  6.494250e+00    5.553561e+03
  6.504750e+00    5.084208e+03
  6.515250e+00    5.045817e+03
  6.525750e+00    5.083366e+03
  6.536250e+00    5.506619e+03
  6.546750e+00    5.591464e+03
  6.557250e+00    6.080590e+03
  6.567750e+00    6.455035e+03
  6.578250e+00    6.325356e+03
  6.588750e+00    6.541823e+03
  6.599250e+00    6.943712e+03
  6.609750e+00    6.265199e+03
  6.620250e+00    5.899480e+03
  6.630750e+00    5.538062e+03
  6.641250e+00    5.196953e+03
  6.651750e+00    4.725461e+03
  6.662250e+00    4.442006e+03
  6.672750e+00    4.402946e+03
  6.683250e+00    4.585535e+03
  6.693750e+00    5.385689e+03
  6.704250e+00    5.999604e+03
  6.714750e+00    6.600796e+03
  6.725250e+00    7.286196e+03
  6.735750e+00    7.589261e+03
  6.746250e+00    8.315324e+03
  6.756750e+00    7.945134e+03
  6.767250e+00    7.850577e+03
  6.777750e+00    8.141208e+03
  6.788250e+00    7.376077e+03
  6.798750e+00    7.101766e+03
  6.809250e+00    6.626033e+03
  6.819750e+00    6.175775e+03
  6.830250e+00    5.836370e+03
  6.840750e+00    6.128261e+03
  6.851250e+00    6.790992e+03
  6.861750e+00    8.218961e+03
  6.872250e+00    9.353238e+03
  6.882750e+00    1.055826e+04
  6.893250e+00    1.161716e+04
  6.903750e+00    1.307598e+04
  6.914250e+00    1.314996e+04
  6.924750e+00    1.374324e+04
  6.935250e+00    1.383399e+04
  6.945750e+00    1.278819e+04
  6.956250e+00    1.206230e+04
  6.966750e+00    1.145908e+04
  6.977250e+00    9.733836e+03
  6.987750e+00    8.283831e+03
  6.998250e+00    6.869687e+03
  7.008750e+00    6.078524e+03
  7.019250e+00    5.858074e+03
  7.029750e+00    6.034260e+03
  7.040250e+00    6.222247e+03
  7.050750e+00    6.760253e+03
  7.061250e+00    7.019420e+03
  7.071750e+00    7.234167e+03
  7.082250e+00    7.440024e+03
  7.092750e+00    7.752306e+03
  7.103250e+00    7.623878e+03
  7.113750e+00    7.053759e+03
  7.124250e+00    6.819949e+03
  7.134750e+00    6.135454e+03
  7.145250e+00    5.059419e+03
  7.155750e+00    4.113545e+03
  7.166250e+00    3.506513e+03
  7.176750e+00    3.109423e+03
  7.187250e+00    2.782107e+03
  7.197750e+00    2.686066e+03
  7.208250e+00    2.521322e+03
  7.218750e+00    2.470042e+03
  7.229250e+00    2.432184e+03
  7.239750e+00    2.417026e+03
  7.250250e+00    2.410880e+03
  7.260750e+00    2.417166e+03
  7.271250e+00    2.441316e+03
  7.281750e+00    2.490324e+03
  7.292250e+00    2.576292e+03
  7.302750e+00    2.676060e+03
  7.313250e+00    2.862168e+03
  7.323750e+00    3.123453e+03
  7.334250e+00    3.472517e+03
  7.344750e+00    3.691164e+03
  7.355250e+00    4.078681e+03
  7.365750e+00    4.441599e+03
  7.376250e+00    4.644569e+03
  7.386750e+00    4.949626e+03
  7.397250e+00    4.942640e+03
  7.407750e+00    5.063717e+03
  7.418250e+00    5.045694e+03
  7.428750e+00    4.847150e+03
  7.439250e+00    4.769598e+03
  7.449750e+00    4.423731e+03
  7.460250e+00    4.228024e+03
  7.470750e+00    3.915315e+03
  7.481250e+00    3.881059e+03
  7.491750e+00    4.107919e+03
  7.502250e+00    4.226247e+03
  7.512750e+00    4.487180e+03
  7.523250e+00    4.484605e+03
  7.533750e+00    4.828989e+03
  7.544250e+00    4.838905e+03
  7.554750e+00    4.974983e+03
  7.565250e+00    4.977506e+03
  7.575750e+00    5.095136e+03
  7.586250e+00    5.146027e+03
  7.596750e+00    5.253016e+03
  7.607250e+00    5.149865e+03
  7.617750e+00    5.468409e+03
  7.628250e+00    6.031675e+03
  7.638750e+00    6.985189e+03
  7.649250e+00    7.992987e+03
  7.659750e+00    9.253797e+03
  7.670250e+00    1.049457e+04
  7.680750e+00    1.134883e+04
  7.691250e+00    1.192335e+04
  7.701750e+00    1.274859e+04
  7.712250e+00    1.260775e+04
  7.722750e+00    1.249777e+04
  7.733250e+00    1.226211e+04
  7.743750e+00    1.107780e+04
  7.754250e+00    9.759851e+03
  7.764750e+00    8.549498e+03
  7.775250e+00    7.156035e+03
  7.785750e+00    6.913325e+03
  7.796250e+00    6.501531e+03
  7.806750e+00    6.613899e+03
  7.817250e+00    6.614563e+03
  7.827750e+00    6.761484e+03
  7.838250e+00    6.877104e+03
  7.848750e+00    6.847394e+03
  7.859250e+00    6.967983e+03
  7.869750e+00    6.763167e+03
  7.880250e+00    6.714183e+03
  7.890750e+00    6.129549e+03
  7.901250e+00    5.316745e+03
  7.911750e+00    4.622841e+03
  7.922250e+00    4.060083e+03
  7.932750e+00    3.468434e+03
  7.943250e+00    3.301016e+03
  7.953750e+00    3.005270e+03
  7.964250e+00    2.805836e+03
  7.974750e+00    2.679437e+03
  7.985250e+00    2.586333e+03
  7.995750e+00    2.540687e+03
  8.006250e+00    2.581162e+03
  8.016750e+00    2.679746e+03
  8.027250e+00    2.997130e+03
  8.037750e+00    3.209311e+03
  8.048250e+00    3.757620e+03
  8.058750e+00    4.324040e+03
  8.069250e+00    5.230113e+03
  8.079750e+00    6.134762e+03
  8.090250e+00    7.103082e+03
  8.100750e+00    8.065691e+03
  8.111250e+00    8.675643e+03
  8.121750e+00    9.568926e+03
  8.132250e+00    9.929500e+03
  8.142750e+00    9.667752e+03
  8.153250e+00    9.887812e+03
  8.163750e+00    9.424903e+03
  8.174250e+00    8.789677e+03
  8.184750e+00    7.774477e+03
  8.195250e+00    6.644037e+03
  8.205750e+00    5.982068e+03
  8.216250e+00    5.443700e+03
  8.226750e+00    5.455141e+03
  8.237250e+00    5.268184e+03
  8.247750e+00    5.348500e+03
  8.258250e+00    5.189416e+03
  8.268750e+00    5.155520e+03
  8.279250e+00    5.000452e+03
  8.289750e+00    4.893670e+03
  8.300250e+00    4.769208e+03
  8.310750e+00    4.494015e+03
  8.321250e+00    4.267281e+03
  8.331750e+00    3.841497e+03
  8.342250e+00    3.489213e+03
  8.352750e+00    3.186270e+03
  8.363250e+00    2.972675e+03
  8.373750e+00    2.844293e+03
  8.384250e+00    2.764569e+03
  8.394750e+00    2.624620e+03
  8.405250e+00    2.560518e+03
  8.415750e+00    2.501053e+03
  8.426250e+00    2.498788e+03
  8.436750e+00    2.544885e+03
  8.447250e+00    2.587961e+03
  8.457750e+00    2.718260e+03
  8.468250e+00    2.803953e+03
  8.478750e+00    2.912664e+03
  8.489250e+00    3.083352e+03
  8.499750e+00    3.233892e+03
  8.510250e+00    3.430151e+03
  8.520750e+00    3.475744e+03
  8.531250e+00    3.735128e+03
  8.541750e+00    3.799135e+03
  8.552250e+00    4.029144e+03
  8.562750e+00    4.167666e+03
  8.573250e+00    4.232049e+03
  8.583750e+00    4.309251e+03
  8.594250e+00    4.703177e+03
  8.604750e+00    4.769651e+03
  8.615250e+00    5.073244e+03
  8.625750e+00    5.400669e+03
  8.636250e+00    5.994322e+03
  8.646750e+00    6.344700e+03
  8.657250e+00    6.835802e+03
  8.667750e+00    7.165904e+03
  8.678250e+00    7.642470e+03
  8.688750e+00    7.643077e+03
  8.699250e+00    7.536705e+03
  8.709750e+00    7.368279e+03
  8.720250e+00    6.911706e+03
  8.730750e+00    6.870673e+03
  8.741250e+00    6.448193e+03
  8.751750e+00    6.382216e+03
  8.762250e+00    6.388419e+03
  8.772750e+00    6.594748e+03
  8.783250e+00    6.882494e+03
  8.793750e+00    7.186899e+03
  8.804250e+00    7.087093e+03
  8.814750e+00    7.335293e+03
  8.825250e+00    7.157336e+03
  8.835750e+00    7.161556e+03
  8.846250e+00    6.931815e+03
  8.856750e+00    6.482758e+03
  8.867250e+00    6.177940e+03
  8.877750e+00    5.878957e+03
  8.888250e+00    5.870626e+03
  8.898750e+00    6.121616e+03
  8.909250e+00    6.149880e+03
  8.919750e+00    6.227438e+03
  8.930250e+00    6.327066e+03
  8.940750e+00    6.348026e+03
  8.951250e+00    6.309807e+03
  8.961750e+00    5.980189e+03
  8.972250e+00    5.885476e+03
  8.982750e+00    5.566463e+03
  8.993250e+00    5.080315e+03
  9.003750e+00    4.833158e+03
  9.014250e+00    4.700854e+03
  9.024750e+00    4.639483e+03
  9.035250e+00    4.603296e+03
  9.045750e+00    4.726567e+03
  9.056250e+00    4.668778e+03
  9.066750e+00    4.728888e+03
  9.077250e+00    4.720380e+03
  9.087750e+00    4.593844e+03
  9.098250e+00    4.507732e+03
  9.108750e+00    4.202013e+03
  9.119250e+00    3.937972e+03
  9.129750e+00    3.839452e+03
  9.140250e+00    3.708986e+03
  9.150750e+00    3.677420e+03
  9.161250e+00    3.674871e+03
  9.171750e+00    3.677060e+03
  9.182250e+00    3.755847e+03
  9.192750e+00    3.869829e+03
  9.203250e+00    3.902753e+03
  9.213750e+00    3.919967e+03
  9.224250e+00    3.969949e+03
  9.234750e+00    4.170020e+03
  9.245250e+00    4.253563e+03
  9.255750e+00    4.560898e+03
  9.266250e+00    4.855172e+03
  9.276750e+00    5.108108e+03
  9.287250e+00    5.267157e+03
  9.297750e+00    5.499076e+03
  9.308250e+00    5.598779e+03
  9.318750e+00    5.747901e+03
  9.329250e+00    5.658996e+03
  9.339750e+00    5.403275e+03
  9.350250e+00    5.113328e+03
  9.360750e+00    4.611154e+03
  9.371250e+00    4.057656e+03
  9.381750e+00    3.582595e+03
  9.392250e+00    3.383802e+03
  9.402750e+00    3.096422e+03
  9.413250e+00    2.987081e+03
  9.423750e+00    2.825903e+03
  9.434250e+00    2.706630e+03
  9.444750e+00    2.640662e+03
  9.455250e+00    2.601123e+03
  9.465750e+00    2.648978e+03
  9.476250e+00    2.725115e+03
  9.486750e+00    2.945183e+03
  9.497250e+00    3.069446e+03
  9.507750e+00    3.233538e+03
  9.518250e+00    3.357785e+03
  9.528750e+00    3.511166e+03
  9.539250e+00    3.631876e+03
  9.549750e+00    3.790389e+03
  9.560250e+00    3.979004e+03
  9.570750e+00    4.191406e+03
  9.581250e+00    4.365201e+03
  9.591750e+00    4.560452e+03
  9.602250e+00    4.796669e+03
  9.612750e+00    5.253997e+03
  9.623250e+00    5.488078e+03
  9.633750e+00    6.005434e+03
  9.644250e+00    6.148534e+03
  9.654750e+00    6.535354e+03
  9.665250e+00    6.798499e+03
  9.675750e+00    6.860113e+03
  9.686250e+00    6.940569e+03
  9.696750e+00    6.809678e+03
  9.707250e+00    6.395585e+03
  9.717750e+00    5.933478e+03
  9.728250e+00    5.487360e+03
  9.738750e+00    5.031264e+03
  9.749250e+00    4.894702e+03
  9.759750e+00    4.682304e+03
  9.770250e+00    4.607667e+03
  9.780750e+00    4.492773e+03
  9.791250e+00    4.391369e+03
  9.801750e+00    4.344413e+03
  9.812250e+00    4.112511e+03
  9.822750e+00    3.982927e+03
  9.833250e+00    3.824150e+03
  9.843750e+00    3.689987e+03
  9.854250e+00    3.570957e+03
  9.864750e+00    3.480459e+03
  9.875250e+00    3.445919e+03
  9.885750e+00    3.425895e+03
  9.896250e+00    3.414875e+03
  9.906750e+00    3.382628e+03
  9.917250e+00    3.347999e+03
  9.927750e+00    3.366027e+03
  9.938250e+00    3.252639e+03
  9.948750e+00    3.209248e+03
  9.959250e+00    3.185281e+03
  9.969750e+00    3.131019e+03
  9.980250e+00    3.145241e+03
  9.990750e+00    3.126478e+03
  1.000125e+01    3.157774e+03
  1.001175e+01    3.258833e+03
  1.002225e+01    3.360425e+03
  1.003275e+01    3.467394e+03
  1.004325e+01    3.633488e+03
  1.005375e+01    3.804845e+03
  1.006425e+01    3.995344e+03
  1.007475e+01    4.255254e+03
  1.008525e+01    4.444317e+03
  1.009575e+01    4.716230e+03
  1.010625e+01    4.904615e+03
  1.011675e+01    5.185540e+03
  1.012725e+01    5.309965e+03
  1.013775e+01    5.494604e+03
  1.014825e+01    5.604540e+03
  1.015875e+01    5.646636e+03
  1.016925e+01    5.426228e+03
  1.017975e+01    5.175491e+03
  1.019025e+01    4.990035e+03
  1.020075e+01    4.775729e+03
  1.021125e+01    4.751574e+03
  1.022175e+01    4.784776e+03
  1.023225e+01    4.755945e+03
  1.024275e+01    4.730428e+03
  1.025325e+01    4.583729e+03
  1.026375e+01    4.353135e+03
  1.027425e+01    4.217218e+03
  1.028475e+01    3.915214e+03
  1.029525e+01    3.624771e+03
  1.030575e+01    3.393854e+03
  1.031625e+01    3.071265e+03
  1.032675e+01    2.981512e+03
  1.033725e+01    2.806507e+03
  1.034775e+01    2.737657e+03
  1.035825e+01    2.646062e+03
  1.036875e+01    2.562096e+03
  1.037925e+01    2.543565e+03
  1.038975e+01    2.505610e+03
  1.040025e+01    2.524353e+03
  1.041075e+01    2.538024e+03
  1.042125e+01    2.588340e+03
  1.043175e+01    2.618323e+03
  1.044225e+01    2.631115e+03
  1.045275e+01    2.712650e+03
  1.046325e+01    2.793571e+03
  1.047375e+01    2.868557e+03
  1.048425e+01    2.935236e+03
  1.049475e+01    3.105199e+03
  1.050525e+01    3.161554e+03
  1.051575e+01    3.329134e+03
  1.052625e+01    3.466240e+03
  1.053675e+01    3.522361e+03
  1.054725e+01    3.678782e+03
  1.055775e+01    3.727136e+03
  1.056825e+01    3.956890e+03
  1.057875e+01    4.035288e+03
  1.058925e+01    4.176830e+03
  1.059975e+01    4.306229e+03
  1.061025e+01    4.458133e+03
  1.062075e+01    4.593994e+03
  1.063125e+01    4.668791e+03
  1.064175e+01    4.835506e+03
  1.065225e+01    4.822948e+03
  1.066275e+01    5.055270e+03
  1.067325e+01    5.058650e+03
  1.068375e+01    5.125257e+03
  1.069425e+01    5.217520e+03
  1.070475e+01    5.143552e+03
  1.071525e+01    5.006189e+03
  1.072575e+01    5.050382e+03
  1.073625e+01    4.838307e+03
  1.074675e+01    4.683442e+03
  1.075725e+01    4.598452e+03
  1.076775e+01    4.512592e+03
  1.077825e+01    4.515214e+03
  1.078875e+01    4.460723e+03
  1.079925e+01    4.321625e+03
  1.080975e+01    4.233977e+03
  1.082025e+01    4.192942e+03
  1.083075e+01    3.999849e+03
  1.084125e+01    3.929862e+03
  1.085175e+01    3.823357e+03
  1.086225e+01    3.648797e+03
  1.087275e+01    3.693072e+03
  1.088325e+01    3.588324e+03
  1.089375e+01    3.724502e+03
  1.090425e+01    3.645642e+03
  1.091475e+01    3.680019e+03
  1.092525e+01    3.747336e+03
  1.093575e+01    3.750418e+03
  1.094625e+01    3.818404e+03
  1.095675e+01    3.857943e+03
  1.096725e+01    3.927002e+03
  1.097775e+01    4.043534e+03
  1.098825e+01    4.148465e+03
  1.099875e+01    4.261351e+03
  1.100925e+01    4.297773e+03
  1.101975e+01    4.376583e+03
  1.103025e+01    4.452922e+03
  1.104075e+01    4.486711e+03
  1.105125e+01    4.633149e+03
  1.106175e+01    4.617767e+03
  1.107225e+01    4.628582e+03
  1.108275e+01    4.669123e+03
  1.109325e+01    4.565830e+03
  1.110375e+01    4.487320e+03
  1.111425e+01    4.419706e+03
  1.112475e+01    4.272769e+03
  1.113525e+01    4.018134e+03
  1.114575e+01    3.725790e+03
  1.115625e+01    3.546044e+03
  1.116675e+01    3.241990e+03
  1.117725e+01    3.146141e+03
  1.118775e+01    2.990880e+03
  1.119825e+01    2.887684e+03
  1.120875e+01    2.843217e+03
  1.121925e+01    2.822056e+03
  1.122975e+01    2.835217e+03
  1.124025e+01    2.904826e+03
  1.125075e+01    2.960991e+03
  1.126125e+01    3.038761e+03
  1.127175e+01    3.141758e+03
  1.128225e+01    3.238060e+03
  1.129275e+01    3.292535e+03
  1.130325e+01    3.353604e+03
  1.131375e+01    3.440676e+03
  1.132425e+01    3.514930e+03
  1.133475e+01    3.530533e+03
  1.134525e+01    3.606805e+03
  1.135575e+01    3.649677e+03
  1.136625e+01    3.629196e+03
  1.137675e+01    3.616041e+03
  1.138725e+01    3.654877e+03
  1.139775e+01    3.652670e+03
  1.140825e+01    3.631112e+03
  1.141875e+01    3.612168e+03
  1.142925e+01    3.638718e+03
  1.143975e+01    3.576503e+03
  1.145025e+01    3.568626e+03
  1.146075e+01    3.529397e+03
  1.147125e+01    3.493460e+03
  1.148175e+01    3.431917e+03
  1.149225e+01    3.389915e+03
  1.150275e+01    3.452669e+03
  1.151325e+01    3.513118e+03
  1.152375e+01    3.488219e+03
  1.153425e+01    3.574526e+03
  1.154475e+01    3.601354e+03
  1.155525e+01    3.635719e+03
  1.156575e+01    3.624169e+03
  1.157625e+01    3.601169e+03
  1.158675e+01    3.573107e+03
  1.159725e+01    3.532141e+03
  1.160775e+01    3.462692e+03
  1.161825e+01    3.390451e+03
  1.162875e+01    3.292346e+03
  1.163925e+01    3.265231e+03
  1.164975e+01    3.071929e+03
  1.166025e+01    2.967791e+03
  1.167075e+01    2.816193e+03
  1.168125e+01    2.752455e+03
  1.169175e+01    2.716518e+03
  1.170225e+01    2.729146e+03
  1.171275e+01    2.734700e+03
  1.172325e+01    2.749003e+03
  1.173375e+01    2.848060e+03
  1.174425e+01    2.900275e+03
  1.175475e+01    2.998887e+03
  1.176525e+01    3.051357e+03
  1.177575e+01    3.169219e+03
  1.178625e+01    3.275535e+03
  1.179675e+01    3.314213e+03
  1.180725e+01    3.484540e+03
  1.181775e+01    3.577789e+03
  1.182825e+01    3.753340e+03
  1.183875e+01    3.854652e+03
  1.184925e+01    3.936722e+03
  1.185975e+01    3.902326e+03
  1.187025e+01    3.905660e+03
  1.188075e+01    3.870438e+03
  1.189125e+01    3.835727e+03
  1.190175e+01    3.750229e+03
  1.191225e+01    3.635510e+03
  1.192275e+01    3.520015e+03
  1.193325e+01    3.419184e+03
  1.194375e+01    3.287395e+03
  1.195425e+01    3.089349e+03
  1.196475e+01    2.962195e+03
  1.197525e+01    2.823886e+03
  1.198575e+01    2.693589e+03
  1.199625e+01    2.591482e+03
  1.200675e+01    2.531760e+03
  1.201725e+01    2.457653e+03
  1.202775e+01    2.420489e+03
  1.203825e+01    2.412623e+03
  1.204875e+01    2.431599e+03
  1.205925e+01    2.468860e+03
  1.206975e+01    2.540536e+03
  1.208025e+01    2.650561e+03
  1.209075e+01    2.793838e+03
  1.210125e+01    2.955135e+03
  1.211175e+01    3.109032e+03
  1.212225e+01    3.330896e+03
  1.213275e+01    3.436967e+03
  1.214325e+01    3.621112e+03
  1.215375e+01    3.624432e+03
  1.216425e+01    3.770684e+03
  1.217475e+01    3.827438e+03
  1.218525e+01    3.903260e+03
  1.219575e+01    3.980189e+03
  1.220625e+01    4.018371e+03
  1.221675e+01    4.044225e+03
  1.222725e+01    4.063189e+03
  1.223775e+01    4.036340e+03
  1.224825e+01    3.938127e+03
  1.225875e+01    3.844663e+03
  1.226925e+01    3.754817e+03
  1.227975e+01    3.634063e+03
  1.229025e+01    3.485733e+03
  1.230075e+01    3.363835e+03
  1.231125e+01    3.299907e+03
  1.232175e+01    3.206901e+03
  1.233225e+01    3.131517e+03
  1.234275e+01    3.045370e+03
  1.235325e+01    2.939593e+03
  1.236375e+01    2.936526e+03
  1.237425e+01    2.876434e+03
  1.238475e+01    2.855919e+03
  1.239525e+01    2.893966e+03
  1.240575e+01    2.869171e+03
  1.241625e+01    2.923439e+03
  1.242675e+01    2.947099e+03
  1.243725e+01    2.986785e+03
  1.244775e+01    3.093112e+03
  1.245825e+01    3.196812e+03
  1.246875e+01    3.354975e+03
  1.247925e+01    3.433619e+03
  1.248975e+01    3.611827e+03
  1.250025e+01    3.595491e+03
  1.251075e+01    3.667482e+03
  1.252125e+01    3.677281e+03
  1.253175e+01    3.632782e+03
  1.254225e+01    3.612258e+03
  1.255275e+01    3.540505e+03
  1.256325e+01    3.515826e+03
  1.257375e+01    3.496947e+03
  1.258425e+01    3.591537e+03
  1.259475e+01    3.622998e+03
  1.260525e+01    3.581219e+03
  1.261575e+01    3.444341e+03
  1.262625e+01    3.272404e+03
  1.263675e+01    3.068137e+03
  1.264725e+01    2.986176e+03
  1.265775e+01    2.844927e+03
  1.266825e+01    2.762022e+03
  1.267875e+01    2.739851e+03
  1.268925e+01    2.657091e+03
  1.269975e+01    2.646425e+03
  1.271025e+01    2.574764e+03
  1.272075e+01    2.525529e+03
  1.273125e+01    2.515098e+03
  1.274175e+01    2.505890e+03
  1.275225e+01    2.496719e+03
  1.276275e+01    2.502865e+03
  1.277325e+01    2.510949e+03
  1.278375e+01    2.513532e+03
  1.279425e+01    2.524394e+03
  1.280475e+01    2.585021e+03
  1.281525e+01    2.590812e+03
  1.282575e+01    2.626748e+03
  1.283625e+01    2.661028e+03
  1.284675e+01    2.706882e+03
  1.285725e+01    2.759513e+03
  1.286775e+01    2.805899e+03
  1.287825e+01    2.878768e+03
  1.288875e+01    2.962495e+03
  1.289925e+01    3.023674e+03
  1.290975e+01    3.166223e+03
  1.292025e+01    3.295761e+03
  1.293075e+01    3.454324e+03
  1.294125e+01    3.570369e+03
  1.295175e+01    3.590466e+03
  1.296225e+01    3.635724e+03
  1.297275e+01    3.629247e+03
  1.298325e+01    3.665159e+03
  1.299375e+01    3.649987e+03
  1.300425e+01    3.667859e+03
  1.301475e+01    3.654649e+03
  1.302525e+01    3.625133e+03
  1.303575e+01    3.598564e+03
  1.304625e+01    3.575649e+03
  1.305675e+01    3.494022e+03
  1.306725e+01    3.417324e+03
  1.307775e+01    3.268825e+03
  1.308825e+01    3.132077e+03
  1.309875e+01    3.025054e+03
  1.310925e+01    2.985606e+03
  1.311975e+01    2.914321e+03
  1.313025e+01    2.912638e+03
  1.314075e+01    2.895137e+03
  1.315125e+01    2.898238e+03
  1.316175e+01    2.930717e+03
  1.317225e+01    2.973326e+03
  1.318275e+01    3.052260e+03
  1.319325e+01    3.104380e+03
  1.320375e+01    3.147907e+03
  1.321425e+01    3.160695e+03
  1.322475e+01    3.178012e+03
  1.323525e+01    3.159415e+03
  1.324575e+01    3.123694e+03
  1.325625e+01    3.102352e+03
  1.326675e+01    3.064932e+03
  1.327725e+01    3.078624e+03
  1.328775e+01    3.075280e+03
  1.329825e+01    3.040504e+03
  1.330875e+01    2.994297e+03
  1.331925e+01    2.909386e+03
  1.332975e+01    2.870417e+03
  1.334025e+01    2.785173e+03
  1.335075e+01    2.691184e+03
  1.336125e+01    2.598387e+03
  1.337175e+01    2.541696e+03
  1.338225e+01    2.500214e+03
  1.339275e+01    2.440785e+03
  1.340325e+01    2.407964e+03
  1.341375e+01    2.400553e+03
  1.342425e+01    2.383346e+03
  1.343475e+01    2.385932e+03
  1.344525e+01    2.386152e+03
  1.345575e+01    2.399326e+03
  1.346625e+01    2.416123e+03
  1.347675e+01    2.457541e+03
  1.348725e+01    2.488985e+03
  1.349775e+01    2.550189e+03
  1.350825e+01    2.618597e+03
  1.351875e+01    2.675022e+03
  1.352925e+01    2.783727e+03
  1.353975e+01    2.838144e+03
  1.355025e+01    2.892082e+03
  1.356075e+01    2.916209e+03
  1.357125e+01    2.941249e+03
  1.358175e+01    2.950750e+03
  1.359225e+01    2.943951e+03
  1.360275e+01    2.968491e+03
  1.361325e+01    2.948060e+03
  1.362375e+01    2.955358e+03
  1.363425e+01    2.954423e+03
  1.364475e+01    2.967058e+03
  1.365525e+01    2.972740e+03
  1.366575e+01    2.982693e+03
  1.367625e+01    2.948562e+03
  1.368675e+01    2.935312e+03
  1.369725e+01    2.946492e+03
  1.370775e+01    2.932353e+03
  1.371825e+01    2.915487e+03
  1.372875e+01    2.873634e+03
  1.373925e+01    2.872787e+03
  1.374975e+01    2.809990e+03
  1.376025e+01    2.780029e+03
  1.377075e+01    2.745832e+03
  1.378125e+01    2.751171e+03
  1.379175e+01    2.729446e+03
  1.380225e+01    2.715641e+03
  1.381275e+01    2.700215e+03
  1.382325e+01    2.699799e+03
  1.383375e+01    2.674064e+03
  1.384425e+01    2.658472e+03
  1.385475e+01    2.634319e+03
  1.386525e+01    2.631582e+03
  1.387575e+01    2.605249e+03
  1.388625e+01    2.630468e+03
  1.389675e+01    2.642809e+03
  1.390725e+01    2.679002e+03
  1.391775e+01    2.727409e+03
  1.392825e+01    2.787900e+03
  1.393875e+01    2.821880e+03
  1.394925e+01    2.856778e+03
  1.395975e+01    2.871634e+03
  1.397025e+01    2.860358e+03
  1.398075e+01    2.829890e+03
  1.399125e+01    2.799595e+03
  1.400175e+01    2.720433e+03
  1.401225e+01    2.701193e+03
  1.402275e+01    2.641163e+03
  1.403325e+01    2.633506e+03
  1.404375e+01    2.608565e+03
  1.405425e+01    2.616487e+03
  1.406475e+01    2.596325e+03
  1.407525e+01    2.568153e+03
  1.408575e+01    2.530414e+03
  1.409625e+01    2.511390e+03
  1.410675e+01    2.493935e+03
  1.411725e+01    2.481156e+03
  1.412775e+01    2.470814e+03
  1.413825e+01    2.504107e+03
  1.414875e+01    2.544918e+03
  1.415925e+01    2.607765e+03
  1.416975e+01    2.699383e+03
  1.418025e+01    2.827933e+03
  1.419075e+01    2.915589e+03
  1.420125e+01    2.985556e+03
  1.421175e+01    3.012462e+03
  1.422225e+01    3.082646e+03
  1.423275e+01    3.093361e+03
  1.424325e+01    3.114595e+03
  1.425375e+01    3.155230e+03
  1.426425e+01    3.161870e+03
  1.427475e+01    3.181688e+03
  1.428525e+01    3.187433e+03
  1.429575e+01    3.191712e+03
  1.430625e+01    3.169578e+03
  1.431675e+01    3.153800e+03
  1.432725e+01    3.092704e+03
  1.433775e+01    3.044995e+03
  1.434825e+01    2.976812e+03
  1.435875e+01    2.904118e+03
  1.436925e+01    2.811118e+03
  1.437975e+01    2.754538e+03
  1.439025e+01    2.701468e+03
  1.440075e+01    2.631268e+03
  1.441125e+01    2.567670e+03
  1.442175e+01    2.516599e+03
  1.443225e+01    2.477604e+03
  1.444275e+01    2.445406e+03
  1.445325e+01    2.426987e+03
  1.446375e+01    2.415949e+03
  1.447425e+01    2.423624e+03
  1.448475e+01    2.473260e+03
  1.449525e+01    2.488190e+03
  1.450575e+01    2.496362e+03
  1.451625e+01    2.532039e+03
  1.452675e+01    2.553133e+03
  1.453725e+01    2.597671e+03
  1.454775e+01    2.620064e+03
  1.455825e+01    2.665334e+03
  1.456875e+01    2.698312e+03
  1.457925e+01    2.757333e+03
  1.458975e+01    2.782085e+03
  1.460025e+01    2.795542e+03
  1.461075e+01    2.781854e+03
  1.462125e+01    2.760609e+03
  1.463175e+01    2.712457e+03
  1.464225e+01    2.670812e+03
  1.465275e+01    2.623393e+03
  1.466325e+01    2.583007e+03
  1.467375e+01    2.549631e+03
  1.468425e+01    2.514369e+03
  1.469475e+01    2.519728e+03
  1.470525e+01    2.460704e+03
  1.471575e+01    2.432784e+03
  1.472625e+01    2.404027e+03
  1.473675e+01    2.379160e+03
  1.474725e+01    2.341290e+03
  1.475775e+01    2.325426e+03
  1.476825e+01    2.302745e+03
  1.477875e+01    2.288232e+03
  1.478925e+01    2.293744e+03
  1.479975e+01    2.300099e+03
  1.481025e+01    2.306011e+03
  1.482075e+01    2.336687e+03
  1.483125e+01    2.367707e+03
  1.484175e+01    2.400615e+03
  1.485225e+01    2.430915e+03
  1.486275e+01    2.470283e+03
  1.487325e+01    2.518814e+03
  1.488375e+01    2.540041e+03
  1.489425e+01    2.579143e+03
  1.490475e+01    2.578903e+03
  1.491525e+01    2.602091e+03
  1.492575e+01    2.604644e+03
  1.493625e+01    2.604506e+03
  1.494675e+01    2.634957e+03
  1.495725e+01    2.621140e+03
  1.496775e+01    2.612524e+03
  1.497825e+01    2.627605e+03
  1.498875e+01    2.618157e+03
  1.499925e+01    2.602869e+03
  1.500975e+01    2.586972e+03
  1.502025e+01    2.576964e+03
  1.503075e+01    2.584155e+03
  1.504125e+01    2.564782e+03
  1.505175e+01    2.550422e+03
  1.506225e+01    2.547114e+03
  1.507275e+01    2.555734e+03
  1.508325e+01    2.587860e+03
  1.509375e+01    2.640458e+03
  1.510425e+01    2.684199e+03
  1.511475e+01    2.715255e+03
  1.512525e+01    2.746087e+03
  1.513575e+01    2.731927e+03
  1.514625e+01    2.711037e+03
  1.515675e+01    2.663981e+03
  1.516725e+01    2.624927e+03
  1.517775e+01    2.625009e+03
  1.518825e+01    2.593746e+03
  1.519875e+01    2.611150e+03
  1.520925e+01    2.641673e+03
  1.521975e+01    2.659140e+03
  1.523025e+01    2.661961e+03
  1.524075e+01    2.623728e+03
  1.525125e+01    2.548535e+03
  1.526175e+01    2.517642e+03
  1.527225e+01    2.488483e+03
  1.528275e+01    2.470659e+03
  1.529325e+01    2.443540e+03
  1.530375e+01    2.406927e+03
  1.531425e+01    2.390351e+03
  1.532475e+01    2.361205e+03
  1.533525e+01    2.354200e+03
  1.534575e+01    2.356898e+03
  1.535625e+01    2.360698e+03
  1.536675e+01    2.354385e+03
  1.537725e+01    2.366427e+03
  1.538775e+01    2.408825e+03
  1.539825e+01    2.430688e+03
  1.540875e+01    2.470304e+03
  1.541925e+01    2.514276e+03
  1.542975e+01    2.545249e+03
  1.544025e+01    2.567375e+03
  1.545075e+01    2.576194e+03
  1.546125e+01    2.587006e+03
  1.547175e+01    2.585502e+03
  1.548225e+01    2.592048e+03
  1.549275e+01    2.594816e+03
  1.550325e+01    2.604471e+03
  1.551375e+01    2.585856e+03
  1.552425e+01    2.610347e+03
  1.553475e+01    2.622629e+03
  1.554525e+01    2.607855e+03
  1.555575e+01    2.596786e+03
  1.556625e+01    2.576288e+03
  1.557675e+01    2.539695e+03
  1.558725e+01    2.515845e+03
  1.559775e+01    2.482331e+03
  1.560825e+01    2.473616e+03
  1.561875e+01    2.475006e+03
  1.562925e+01    2.455873e+03
  1.563975e+01    2.404225e+03
  1.565025e+01    2.380842e+03
  1.566075e+01    2.364497e+03
  1.567125e+01    2.361723e+03
  1.568175e+01    2.362804e+03
  1.569225e+01    2.353676e+03
  1.570275e+01    2.367597e+03
  1.571325e+01    2.376114e+03
  1.572375e+01    2.369639e+03
  1.573425e+01    2.381221e+03
  1.574475e+01    2.392528e+03
  1.575525e+01    2.441337e+03
  1.576575e+01    2.478240e+03
  1.577625e+01    2.516791e+03
  1.578675e+01    2.528908e+03
  1.579725e+01    2.529576e+03
  1.580775e+01    2.540472e+03
  1.581825e+01    2.505629e+03
  1.582875e+01    2.487121e+03
  1.583925e+01    2.453990e+03
  1.584975e+01    2.406273e+03
  1.586025e+01    2.372918e+03
  1.587075e+01    2.350315e+03
  1.588125e+01    2.314814e+03
  1.589175e+01    2.291303e+03
  1.590225e+01    2.282671e+03
  1.591275e+01    2.252258e+03
  1.592325e+01    2.218589e+03
  1.593375e+01    2.169294e+03
  1.594425e+01    2.144064e+03
  1.595475e+01    2.125694e+03
  1.596525e+01    2.133656e+03
  1.597575e+01    2.141723e+03
  1.598625e+01    2.159061e+03
  1.599675e+01    2.186676e+03
  1.600725e+01    2.216110e+03
  1.601775e+01    2.238848e+03
  1.602825e+01    2.265580e+03
  1.603875e+01    2.287037e+03
  1.604925e+01    2.311008e+03
  1.605975e+01    2.339825e+03
  1.607025e+01    2.351509e+03
  1.608075e+01    2.348885e+03
  1.609125e+01    2.372572e+03
  1.610175e+01    2.380084e+03
  1.611225e+01    2.380631e+03
  1.612275e+01    2.377790e+03
  1.613325e+01    2.357140e+03
  1.614375e+01    2.331031e+03
  1.615425e+01    2.320530e+03
  1.616475e+01    2.316505e+03
  1.617525e+01    2.329424e+03
  1.618575e+01    2.341308e+03
  1.619625e+01    2.334139e+03
  1.620675e+01    2.348224e+03
  1.621725e+01    2.340050e+03
  1.622775e+01    2.333961e+03
  1.623825e+01    2.312666e+03
  1.624875e+01    2.330774e+03
  1.625925e+01    2.352685e+03
  1.626975e+01    2.358555e+03
  1.628025e+01    2.369752e+03
  1.629075e+01    2.376194e+03
  1.630125e+01    2.381134e+03
  1.631175e+01    2.374625e+03
  1.632225e+01    2.374692e+03
  1.633275e+01    2.356105e+03
  1.634325e+01    2.340741e+03
  1.635375e+01    2.329435e+03
  1.636425e+01    2.310338e+03
  1.637475e+01    2.285266e+03
  1.638525e+01    2.256505e+03
  1.639575e+01    2.223669e+03
  1.640625e+01    2.175219e+03
  1.641675e+01    2.142332e+03
  1.642725e+01    2.114353e+03
  1.643775e+01    2.085728e+03
  1.644825e+01    2.064510e+03
  1.645875e+01    2.054148e+03
  1.646925e+01    2.062123e+03
  1.647975e+01    2.048520e+03
  1.649025e+01    2.033857e+03
  1.650075e+01    2.031053e+03
  1.651125e+01    2.012534e+03
  1.652175e+01    2.011468e+03
  1.653225e+01    2.010837e+03
  1.654275e+01    2.019195e+03
  1.655325e+01    2.035998e+03
  1.656375e+01    2.051305e+03
  1.657425e+01    2.067010e+03
  1.658475e+01    2.087682e+03
  1.659525e+01    2.085061e+03
  1.660575e+01    2.100327e+03
  1.661625e+01    2.114287e+03
  1.662675e+01    2.124074e+03
  1.663725e+01    2.118280e+03
  1.664775e+01    2.102196e+03
  1.665825e+01    2.089699e+03
  1.666875e+01    2.069646e+03
  1.667925e+01    2.052800e+03
  1.668975e+01    2.032102e+03
  1.670025e+01    2.011952e+03
  1.671075e+01    1.997228e+03
  1.672125e+01    1.994188e+03
  1.673175e+01    1.939192e+03
  1.674225e+01    1.906361e+03
  1.675275e+01    1.889418e+03
  1.676325e+01    1.855978e+03
  1.677375e+01    1.819487e+03
  1.678425e+01    1.822459e+03
  1.679475e+01    1.832896e+03
  1.680525e+01    1.852008e+03
  1.681575e+01    1.884439e+03
  1.682625e+01    1.887687e+03
  1.683675e+01    1.906691e+03
  1.684725e+01    1.889432e+03
  1.685775e+01    1.874113e+03
  1.686825e+01    1.877916e+03
  1.687875e+01    1.894429e+03
  1.688925e+01    1.906761e+03
  1.689975e+01    1.933887e+03
  1.691025e+01    1.924020e+03
  1.692075e+01    1.893875e+03
  1.693125e+01    1.874581e+03
  1.694175e+01    1.837198e+03
  1.695225e+01    1.818309e+03
  1.696275e+01    1.779744e+03
  1.697325e+01    1.743114e+03
  1.698375e+01    1.716943e+03
  1.699425e+01    1.747219e+03
  1.700475e+01    1.748863e+03
  1.701525e+01    1.747561e+03
  1.702575e+01    1.740234e+03
  1.703625e+01    1.719319e+03
  1.704675e+01    1.717332e+03
  1.705725e+01    1.723092e+03
  1.706775e+01    1.756870e+03
  1.707825e+01    1.805980e+03
  1.708875e+01    1.851198e+03
  1.709925e+01    1.855103e+03
  1.710975e+01    1.831371e+03
  1.712025e+01    1.781519e+03
  1.713075e+01    1.758203e+03
  1.714125e+01    1.730488e+03
  1.715175e+01    1.717352e+03
  1.716225e+01    1.709986e+03
  1.717275e+01    1.717803e+03
  1.718325e+01    1.714962e+03
  1.719375e+01    1.732096e+03
  1.720425e+01    1.751596e+03
  1.721475e+01    1.744176e+03
  1.722525e+01    1.732511e+03
  1.723575e+01    1.674840e+03
  1.724625e+01    1.629498e+03
  1.725675e+01    1.562603e+03
  1.726725e+01    1.548686e+03
  1.727775e+01    1.516705e+03
  1.728825e+01    1.512351e+03
  1.729875e+01    1.485238e+03
  1.730925e+01    1.482670e+03
  1.731975e+01    1.451708e+03
  1.733025e+01    1.477266e+03
  1.734075e+01    1.458911e+03
  1.735125e+01    1.448808e+03
  1.736175e+01    1.424432e+03
  1.737225e+01    1.392572e+03
  1.738275e+01    1.394665e+03
  1.739325e+01    1.393221e+03
  1.740375e+01    1.426470e+03
  1.741425e+01    1.420681e+03
  1.742475e+01    1.422517e+03
  1.743525e+01    1.388842e+03
  1.744575e+01    1.355462e+03
  1.745625e+01    1.311306e+03
  1.746675e+01    1.296613e+03
  1.747725e+01    1.274589e+03
  1.748775e+01    1.260487e+03
  1.749825e+01    1.256733e+03
  1.750875e+01    1.253217e+03
  1.751925e+01    1.261590e+03
  1.752975e+01    1.256492e+03
  1.754025e+01    1.279330e+03
  1.755075e+01    1.261604e+03
  1.756125e+01    1.225713e+03
  1.757175e+01    1.189818e+03
  1.758225e+01    1.146835e+03
  1.759275e+01    1.145892e+03
  1.760325e+01    1.145117e+03
  1.761375e+01    1.136051e+03
  1.762425e+01    1.132007e+03
  1.763475e+01    1.119216e+03
  1.764525e+01    1.118126e+03
  1.765575e+01    1.126025e+03
  1.766625e+01    1.121358e+03
  1.767675e+01    1.122094e+03
  1.768725e+01    1.110187e+03
  1.769775e+01    1.080096e+03
  1.770825e+01    1.072173e+03
  1.771875e+01    1.070836e+03
  1.772925e+01    1.057937e+03
  1.773975e+01    1.056639e+03
  1.775025e+01    1.046026e+03
  1.776075e+01    1.020501e+03
  1.777125e+01    1.010335e+03
  1.778175e+01    1.041147e+03
  1.779225e+01    1.042704e+03
  1.780275e+01    1.021215e+03
  1.781325e+01    1.010746e+03
  1.782375e+01    9.839033e+02
  1.783425e+01    9.787449e+02
  1.784475e+01    9.709120e+02
  1.785525e+01    9.685994e+02
  1.786575e+01    9.705637e+02
  1.787625e+01    9.530276e+02
  1.788675e+01    9.390632e+02
  1.789725e+01    9.110426e+02
  1.790775e+01    9.023148e+02
  1.791825e+01    8.976764e+02
  1.792875e+01    8.937585e+02
  1.793925e+01    8.753958e+02
  1.794975e+01    8.642461e+02
  1.796025e+01    8.503497e+02
  1.797075e+01    8.456542e+02
  1.798125e+01    8.242001e+02
  1.799175e+01    8.182261e+02
  1.800225e+01    8.100735e+02
  1.801275e+01    7.945880e+02
  1.802325e+01    7.825961e+02
  1.803375e+01    7.673795e+02
  1.804425e+01    7.579766e+02
  1.805475e+01    7.488282e+02
  1.806525e+01    7.428809e+02
  1.807575e+01    7.350312e+02
  1.808625e+01    7.253928e+02
  1.809675e+01    7.222797e+02
  1.810725e+01    7.208004e+02
  1.811775e+01    7.159901e+02
  1.812825e+01    7.115498e+02
  1.813875e+01    7.050475e+02
  1.814925e+01    7.053764e+02
  1.815975e+01    7.069248e+02
  1.817025e+01    7.139216e+02
  1.818075e+01    7.104788e+02
  1.819125e+01    7.024369e+02
  1.820175e+01    6.945801e+02
  1.821225e+01    6.816698e+02
  1.822275e+01    6.778135e+02
  1.823325e+01    6.711453e+02
  1.824375e+01    6.654782e+02
  1.825425e+01    6.605004e+02
  1.826475e+01    6.480975e+02
  1.827525e+01    6.389084e+02
  1.828575e+01    6.338615e+02
  1.829625e+01    6.268776e+02
  1.830675e+01    6.182309e+02
  1.831725e+01    6.050950e+02
  1.832775e+01    5.927741e+02
  1.833825e+01    5.925859e+02
  1.834875e+01    6.022534e+02
  1.835925e+01    6.118284e+02
  1.836975e+01    6.186739e+02
  1.838025e+01    6.159203e+02
  1.839075e+01    6.022601e+02
  1.840125e+01    5.892927e+02
  1.841175e+01    5.832223e+02
  1.842225e+01    5.840157e+02
  1.843275e+01    5.864968e+02
  1.844325e+01    5.865864e+02
  1.845375e+01    5.692543e+02
  1.846425e+01    5.588893e+02
  1.847475e+01    5.523376e+02
  1.848525e+01    5.424103e+02
  1.849575e+01    5.305150e+02
  1.850625e+01    5.186005e+02
  1.851675e+01    5.050624e+02
  1.852725e+01    4.995143e+02
  1.853775e+01    4.986658e+02
  1.854825e+01    4.981070e+02
  1.855875e+01    4.903905e+02
  1.856925e+01    4.823638e+02
  1.857975e+01    4.754184e+02
  1.859025e+01    4.724914e+02
  1.860075e+01    4.726130e+02
  1.861125e+01    4.714249e+02
  1.862175e+01    4.686111e+02
  1.863225e+01    4.659284e+02
  1.864275e+01    4.627978e+02
  1.865325e+01    4.623501e+02
  1.866375e+01    4.640032e+02
  1.867425e+01    4.611493e+02
  1.868475e+01    4.556472e+02
  1.869525e+01    4.506792e+02
  1.870575e+01    4.484581e+02
  1.871625e+01    4.486960e+02
  1.872675e+01    4.492570e+02
  1.873725e+01    4.463285e+02
  1.874775e+01    4.398260e+02
  1.875825e+01    4.308423e+02
  1.876875e+01    4.248549e+02
  1.877925e+01    4.208286e+02
  1.878975e+01    4.189102e+02
  1.880025e+01    4.145031e+02
  1.881075e+01    4.094771e+02
  1.882125e+01    4.044876e+02
  1.883175e+01    4.015031e+02
  1.884225e+01    4.011223e+02
  1.885275e+01    3.999463e+02
  1.886325e+01    3.950459e+02
  1.887375e+01    3.930298e+02
  1.888425e+01    3.880941e+02
  1.889475e+01    3.878256e+02
  1.890525e+01    3.872803e+02
  1.891575e+01    3.903916e+02
  1.892625e+01    3.895416e+02
  1.893675e+01    3.865797e+02
  1.894725e+01    3.836048e+02
  1.895775e+01    3.817137e+02
  1.896825e+01    3.786261e+02
  1.897875e+01    3.757566e+02
  1.898925e+01    3.724113e+02
  1.899975e+01    3.677254e+02
  1.901025e+01    3.662098e+02
  1.902075e+01    3.646540e+02
  1.903125e+01    3.630831e+02
  1.904175e+01    3.594102e+02
  1.905225e+01    3.555710e+02
  1.906275e+01    3.535403e+02
  1.907325e+01    3.524492e+02
  1.908375e+01    3.546569e+02
  1.909425e+01    3.563851e+02
  1.910475e+01    3.571068e+02
  1.911525e+01    3.573211e+02
  1.912575e+01    3.569037e+02
  1.913625e+01    3.563182e+02
  1.914675e+01    3.538538e+02
  1.915725e+01    3.530804e+02
  1.916775e+01    3.526245e+02
  1.917825e+01    3.519415e+02
  1.918875e+01    3.500183e+02
  1.919925e+01    3.479498e+02
  1.920975e+01    3.454303e+02
  1.922025e+01    3.410400e+02
  1.923075e+01    3.361080e+02
  1.924125e+01    3.333812e+02
  1.925175e+01    3.307285e+02
  1.926225e+01    3.307006e+02
  1.927275e+01    3.290684e+02
  1.928325e+01    3.274390e+02
  1.929375e+01    3.256145e+02
  1.930425e+01    3.237204e+02
  1.931475e+01    3.228109e+02
  1.932525e+01    3.222295e+02
  1.933575e+01    3.238464e+02
  1.934625e+01    3.244135e+02
  1.935675e+01    3.244140e+02
  1.936725e+01    3.245409e+02
  1.937775e+01    3.237644e+02
  1.938825e+01    3.224945e+02
  1.939875e+01    3.235349e+02
  1.940925e+01    3.212671e+02
  1.941975e+01    3.175792e+02
  1.943025e+01    3.160120e+02
  1.944075e+01    3.144170e+02
  1.945125e+01    3.115416e+02
  1.946175e+01    3.093107e+02
  1.947225e+01    3.076719e+02
  1.948275e+01    3.061721e+02
  1.949325e+01    3.060017e+02
  1.950375e+01    3.045332e+02
  1.951425e+01    3.022253e+02
  1.952475e+01    3.007806e+02
  1.953525e+01    2.979041e+02
  1.954575e+01    2.969336e+02
  1.955625e+01    2.965978e+02
  1.956675e+01    2.963703e+02
  1.957725e+01    2.965316e+02
  1.958775e+01    2.959493e+02
  1.959825e+01    2.946181e+02
  1.960875e+01    2.945958e+02
  1.961925e+01    2.954001e+02
  1.962975e+01    2.948517e+02
  1.964025e+01    2.940858e+02
  1.965075e+01    2.923296e+02
  1.966125e+01    2.925167e+02
  1.967175e+01    2.928016e+02
  1.968225e+01    2.918741e+02
  1.969275e+01    2.923918e+02
  1.970325e+01    2.907176e+02
  1.971375e+01    2.888389e+02
  1.972425e+01    2.891679e+02
  1.973475e+01    2.874011e+02
  1.974525e+01    2.858233e+02
  1.975575e+01    2.853002e+02
  1.976625e+01    2.833575e+02
  1.977675e+01    2.824346e+02
  1.978725e+01    2.828138e+02
  1.979775e+01    2.822900e+02
  1.980825e+01    2.814161e+02
  1.981875e+01    2.814080e+02
  1.982925e+01    2.797743e+02
  1.983975e+01    2.795103e+02
  1.985025e+01    2.800002e+02
  1.986075e+01    2.806032e+02
  1.987125e+01    2.807861e+02
  1.988175e+01    2.802050e+02
  1.989225e+01    2.794754e+02
  1.990275e+01    2.791285e+02
  1.991325e+01    2.769131e+02
  1.992375e+01    2.750432e+02
  1.993425e+01    2.737576e+02
  1.994475e+01    2.729413e+02
  1.995525e+01    2.720672e+02
  1.996575e+01    2.711050e+02
  1.997625e+01    2.697243e+02
  1.998675e+01    2.688700e+02
  1.999725e+01    2.684800e+02
  2.000775e+01    2.682718e+02
  2.001825e+01    2.681346e+02
  2.002875e+01    2.678784e+02
  2.003925e+01    2.676885e+02
  2.004975e+01    2.674625e+02
  2.006025e+01    2.671666e+02
  2.007075e+01    2.672285e+02
  2.008125e+01    2.669889e+02
  2.009175e+01    2.671455e+02
  2.010225e+01    2.678454e+02
  2.011275e+01    2.676458e+02
  2.012325e+01    2.670376e+02
  2.013375e+01    2.654751e+02
  2.014425e+01    2.650597e+02
  2.015475e+01    2.659880e+02
  2.016525e+01    2.658792e+02
  2.017575e+01    2.658785e+02
  2.018625e+01    2.648938e+02
  2.019675e+01    2.644165e+02
  2.020725e+01    2.639389e+02
  2.021775e+01    2.640956e+02
  2.022825e+01    2.636747e+02
  2.023875e+01    2.637385e+02
  2.024925e+01    2.633389e+02
  2.025975e+01    2.635535e+02
  2.027025e+01    2.624970e+02
  2.028075e+01    2.612887e+02
  2.029125e+01    2.609380e+02
  2.030175e+01    2.620653e+02
  2.031225e+01    2.626144e+02
  2.032275e+01    2.620344e+02
  2.033325e+01    2.610178e+02
  2.034375e+01    2.606792e+02
  2.035425e+01    2.608056e+02
  2.036475e+01    2.610828e+02
  2.037525e+01    2.592227e+02
  2.038575e+01    2.575977e+02
  2.039625e+01    2.575766e+02
  2.040675e+01    2.613043e+02
  2.041725e+01    2.622607e+02
  2.042775e+01    2.593532e+02
  2.043825e+01    2.592156e+02
  2.044875e+01    2.543580e+02
  2.045925e+01    2.556855e+02
  2.046975e+01    2.555780e+02
  2.048025e+01    2.570333e+02
  2.049075e+01    2.535580e+02
  2.050125e+01    2.532290e+02
  2.051175e+01    2.538886e+02
  2.052225e+01    2.567787e+02
  2.053275e+01    2.558379e+02
  2.054325e+01    2.595851e+02
  2.055375e+01    2.566255e+02
  2.056425e+01    2.543018e+02
  2.057475e+01    2.608576e+02
  2.058525e+01    2.429800e+02
  2.059575e+01             0
  2.060625e+01             0
  2.061675e+01             0
  2.062725e+01             0
  2.063775e+01             0
  2.064825e+01             0
  2.065875e+01             0
  2.066925e+01             0
  2.067975e+01             0
  2.069025e+01             0
  2.070075e+01             0
  2.071125e+01             0
  2.072175e+01             0
  2.073225e+01             0
  2.074275e+01             0
  2.075325e+01             0
  2.076375e+01             0
  2.077425e+01             0
  2.078475e+01             0
  2.079525e+01             0
  2.080575e+01             0
  2.081625e+01             0
  2.082675e+01             0
  2.083725e+01             0
  2.084775e+01             0
  2.085825e+01             0
  2.086875e+01             0
  2.087925e+01             0
  2.088975e+01             0
  2.090025e+01             0
  2.091075e+01             0
  2.092125e+01             0
  2.093175e+01             0
  2.094225e+01             0
  2.095275e+01             0
  2.096325e+01             0
  2.097375e+01             0
  2.098425e+01             0
  2.099475e+01             0
