# xPDFsuite Configuration #
[PDF]
wavelength = 0.1
dataformat = Qnm
inputfile = A3-Li-TiO2-12h-p2_031.chi
backgroundfile = A2_Bkg-Li_d22-00000.chi
mode = xray
bgscale = 0.91
composition = TiO2
outputtype = gr
qmaxinst = 21.4
qmin = 0.1
qmax = 21.4
rmax = 100.0
rmin = 0.0
rstep = 0.01
rpoly = 0.9

[Misc]
inputdir = D:/APS_March_2019/Run3/Processed-Data/A3-Li-TiO2-12h-p2/chi-files
savedir = D:/APS_March_2019/Run3/Processed-Data/A3-Li-TiO2-12h-p2
backgroundfilefull = D:/APS_March_2019/Calib-Bkg/A2_Bkg-Li_d22-00000.chi

#### start data
#S 1
#L r($\AA$)  G($\AA^{-2}$)
0 0
0.01 -0.000313741
0.02 -0.000613828
0.03 -0.000885741
0.04 -0.00111586
0.05 -0.00129917
0.06 -0.00141756
0.07 -0.00147442
0.08 -0.00146499
0.09 -0.0013843
0.1 -0.00124484
0.11 -0.00104403
0.12 -0.000796347
0.13 -0.000513457
0.14 -0.00020594
0.15 0.00010754
0.16 0.000409474
0.17 0.00068101
0.18 0.000905905
0.19 0.00104982
0.2 0.00110502
0.21 0.00103855
0.22 0.000823504
0.23 0.000452022
0.24 -0.000136875
0.25 -0.000935899
0.26 -0.00198105
0.27 -0.00331315
0.28 -0.00491535
0.29 -0.00685095
0.3 -0.00909387
0.31 -0.0116432
0.32 -0.0145216
0.33 -0.0176547
0.34 -0.021029
0.35 -0.0245619
0.36 -0.0281603
0.37 -0.0316973
0.38 -0.0350397
0.39 -0.0379806
0.4 -0.0403017
0.41 -0.0418424
0.42 -0.0421218
0.43 -0.0410568
0.44 -0.0382366
0.45 -0.0332272
0.46 -0.0259774
0.47 -0.0157145
0.48 -0.00248875
0.49 0.0140169
0.5 0.0343959
0.51 0.0582748
0.52 0.0862928
0.53 0.118168
0.54 0.153678
0.55 0.193183
0.56 0.23574
0.57 0.281261
0.58 0.329087
0.59 0.378388
0.6 0.428509
0.61 0.478391
0.62 0.526984
0.63 0.573059
0.64 0.615808
0.65 0.653221
0.66 0.684811
0.67 0.709231
0.68 0.724659
0.69 0.73133
0.7 0.726877
0.71 0.711555
0.72 0.685106
0.73 0.645641
0.74 0.595134
0.75 0.532392
0.76 0.458424
0.77 0.374774
0.78 0.280755
0.79 0.179471
0.8 0.0717731
0.81 -0.0405291
0.82 -0.155158
0.83 -0.270158
0.84 -0.383344
0.85 -0.492489
0.86 -0.595002
0.87 -0.689802
0.88 -0.773496
0.89 -0.845549
0.9 -0.904679
0.91 -0.948095
0.92 -0.977425
0.93 -0.990348
0.94 -0.987831
0.95 -0.971199
0.96 -0.938922
0.97 -0.894873
0.98 -0.839437
0.99 -0.774729
1 -0.703691
1.01 -0.627886
1.02 -0.550626
1.03 -0.474421
1.04 -0.402162
1.05 -0.33575
1.06 -0.278887
1.07 -0.232564
1.08 -0.198646
1.09 -0.179991
1.1 -0.17539
1.11 -0.187489
1.12 -0.215151
1.13 -0.257314
1.14 -0.31524
1.15 -0.385019
1.16 -0.466158
1.17 -0.556118
1.18 -0.651829
1.19 -0.751266
1.2 -0.850943
1.21 -0.947951
1.22 -1.03909
1.23 -1.12243
1.24 -1.19357
1.25 -1.25188
1.26 -1.29513
1.27 -1.32043
1.28 -1.32927
1.29 -1.31859
1.3 -1.29016
1.31 -1.245
1.32 -1.18207
1.33 -1.1057
1.34 -1.01637
1.35 -0.917126
1.36 -0.811244
1.37 -0.700891
1.38 -0.589876
1.39 -0.481268
1.4 -0.378329
1.41 -0.283123
1.42 -0.200183
1.43 -0.129968
1.44 -0.0749083
1.45 -0.0375515
1.46 -0.0164793
1.47 -0.0147911
1.48 -0.0303533
1.49 -0.0623599
1.5 -0.11149
1.51 -0.173595
1.52 -0.248248
1.53 -0.332322
1.54 -0.422796
1.55 -0.517562
1.56 -0.613079
1.57 -0.706494
1.58 -0.794891
1.59 -0.876377
1.6 -0.946803
1.61 -1.00596
1.62 -1.05148
1.63 -1.08136
1.64 -1.09673
1.65 -1.09466
1.66 -1.07721
1.67 -1.04472
1.68 -0.996537
1.69 -0.936025
1.7 -0.862945
1.71 -0.779847
1.72 -0.688847
1.73 -0.590795
1.74 -0.488648
1.75 -0.38378
1.76 -0.277998
1.77 -0.172766
1.78 -0.0697407
1.79 0.0304209
1.8 0.126684
1.81 0.218331
1.82 0.305602
1.83 0.387614
1.84 0.465174
1.85 0.538441
1.86 0.607483
1.87 0.673315
1.88 0.735964
1.89 0.796144
1.9 0.854264
1.91 0.910285
1.92 0.964608
1.93 1.01688
1.94 1.06685
1.95 1.11421
1.96 1.15757
1.97 1.19673
1.98 1.23022
1.99 1.2567
2 1.27576
2.01 1.28454
2.02 1.28331
2.03 1.27055
2.04 1.24443
2.05 1.20599
2.06 1.15271
2.07 1.0859
2.08 1.00589
2.09 0.911608
2.1 0.806074
2.11 0.689105
2.12 0.562918
2.13 0.429835
2.14 0.291072
2.15 0.14987
2.16 0.00847964
2.17 -0.130443
2.18 -0.264841
2.19 -0.39098
2.2 -0.50796
2.21 -0.613238
2.22 -0.704365
2.23 -0.781812
2.24 -0.842158
2.25 -0.886835
2.26 -0.915685
2.27 -0.927426
2.28 -0.925299
2.29 -0.908624
2.3 -0.879983
2.31 -0.841701
2.32 -0.794631
2.33 -0.74245
2.34 -0.687038
2.35 -0.630966
2.36 -0.576435
2.37 -0.526372
2.38 -0.481955
2.39 -0.44533
2.4 -0.418254
2.41 -0.40058
2.42 -0.394726
2.43 -0.399397
2.44 -0.41466
2.45 -0.440836
2.46 -0.475547
2.47 -0.51873
2.48 -0.568155
2.49 -0.622005
2.5 -0.678795
2.51 -0.736184
2.52 -0.792197
2.53 -0.844912
2.54 -0.892969
2.55 -0.93349
2.56 -0.966469
2.57 -0.990058
2.58 -1.00319
2.59 -1.00651
2.6 -0.997848
2.61 -0.978981
2.62 -0.949814
2.63 -0.910246
2.64 -0.862391
2.65 -0.80598
2.66 -0.742947
2.67 -0.6745
2.68 -0.6013
2.69 -0.525207
2.7 -0.447024
2.71 -0.367908
2.72 -0.288755
2.73 -0.210435
2.74 -0.133375
2.75 -0.0581279
2.76 0.0150352
2.77 0.0862252
2.78 0.15508
2.79 0.222096
2.8 0.287368
2.81 0.351069
2.82 0.413633
2.83 0.475116
2.84 0.535802
2.85 0.595758
2.86 0.654857
2.87 0.713061
2.88 0.769897
2.89 0.824982
2.9 0.877848
2.91 0.927274
2.92 0.973025
2.93 1.01373
2.94 1.04847
2.95 1.0769
2.96 1.09657
2.97 1.1081
2.98 1.11008
2.99 1.10144
3 1.08295
3.01 1.05251
3.02 1.01153
3.03 0.959927
3.04 0.897111
3.05 0.825193
3.06 0.743667
3.07 0.654305
3.08 0.558464
3.09 0.456658
3.1 0.351198
3.11 0.243175
3.12 0.134228
3.13 0.0257994
3.14 -0.0802805
3.15 -0.183097
3.16 -0.281087
3.17 -0.372957
3.18 -0.458477
3.19 -0.535514
3.2 -0.604631
3.21 -0.665066
3.22 -0.715838
3.23 -0.758076
3.24 -0.790379
3.25 -0.813778
3.26 -0.828586
3.27 -0.833946
3.28 -0.831577
3.29 -0.820776
3.3 -0.802246
3.31 -0.776788
3.32 -0.743376
3.33 -0.703616
3.34 -0.657046
3.35 -0.603817
3.36 -0.544755
3.37 -0.478869
3.38 -0.407371
3.39 -0.330129
3.4 -0.247079
3.41 -0.159246
3.42 -0.0662792
3.43 0.0307328
3.44 0.13117
3.45 0.23454
3.46 0.339535
3.47 0.445244
3.48 0.550411
3.49 0.653861
3.5 0.75369
3.51 0.849107
3.52 0.938097
3.53 1.01921
3.54 1.0919
3.55 1.15284
3.56 1.20285
3.57 1.24008
3.58 1.26311
3.59 1.27308
3.6 1.26722
3.61 1.24744
3.62 1.21367
3.63 1.16511
3.64 1.10454
3.65 1.03123
3.66 0.947418
3.67 0.8548
3.68 0.753828
3.69 0.647463
3.7 0.536859
3.71 0.423961
3.72 0.310535
3.73 0.198419
3.74 0.0888608
3.75 -0.016555
3.76 -0.116492
3.77 -0.210672
3.78 -0.29719
3.79 -0.376629
3.8 -0.448501
3.81 -0.512203
3.82 -0.569002
3.83 -0.618213
3.84 -0.661071
3.85 -0.698311
3.86 -0.729999
3.87 -0.757729
3.88 -0.781789
3.89 -0.803097
3.9 -0.822458
3.91 -0.840155
3.92 -0.856909
3.93 -0.872926
3.94 -0.888371
3.95 -0.903322
3.96 -0.917534
3.97 -0.930872
3.98 -0.942938
3.99 -0.953182
4 -0.961379
4.01 -0.966616
4.02 -0.968718
4.03 -0.967267
4.04 -0.961439
4.05 -0.95163
4.06 -0.937142
4.07 -0.918266
4.08 -0.895396
4.09 -0.868206
4.1 -0.837881
4.11 -0.804711
4.12 -0.769496
4.13 -0.733194
4.14 -0.696643
4.15 -0.660799
4.16 -0.626628
4.17 -0.595151
4.18 -0.566797
4.19 -0.542892
4.2 -0.523426
4.21 -0.50881
4.22 -0.499696
4.23 -0.495261
4.24 -0.495904
4.25 -0.500751
4.26 -0.508995
4.27 -0.52016
4.28 -0.532776
4.29 -0.545805
4.3 -0.557934
4.31 -0.568063
4.32 -0.574209
4.33 -0.575854
4.34 -0.571424
4.35 -0.559647
4.36 -0.540527
4.37 -0.511915
4.38 -0.474655
4.39 -0.428261
4.4 -0.372054
4.41 -0.307641
4.42 -0.234344
4.43 -0.153773
4.44 -0.0670485
4.45 0.0253039
4.46 0.121106
4.47 0.219245
4.48 0.318025
4.49 0.415951
4.5 0.511012
4.51 0.602242
4.52 0.687837
4.53 0.766396
4.54 0.837628
4.55 0.899025
4.56 0.951359
4.57 0.993682
4.58 1.02507
4.59 1.04687
4.6 1.05765
4.61 1.05894
4.62 1.0513
4.63 1.03444
4.64 1.01053
4.65 0.979581
4.66 0.943012
4.67 0.902112
4.68 0.857328
4.69 0.810324
4.7 0.761873
4.71 0.712971
4.72 0.664457
4.73 0.617324
4.74 0.572013
4.75 0.52922
4.76 0.489573
4.77 0.453045
4.78 0.420497
4.79 0.391642
4.8 0.366623
4.81 0.345859
4.82 0.328709
4.83 0.315601
4.84 0.306093
4.85 0.299858
4.86 0.297153
4.87 0.297149
4.88 0.29986
4.89 0.304882
4.9 0.311683
4.91 0.320184
4.92 0.329676
4.93 0.339802
4.94 0.35007
4.95 0.36
4.96 0.368924
4.97 0.376437
4.98 0.381955
4.99 0.384697
5 0.38452
5.01 0.380386
5.02 0.372147
5.03 0.359484
5.04 0.341353
5.05 0.31833
5.06 0.289586
5.07 0.255265
5.08 0.215827
5.09 0.170445
5.1 0.120471
5.11 0.0658989
5.12 0.00729414
5.13 -0.0542633
5.14 -0.118387
5.15 -0.18378
5.16 -0.249511
5.17 -0.314434
5.18 -0.377615
5.19 -0.437528
5.2 -0.493415
5.21 -0.544316
5.22 -0.588548
5.23 -0.626297
5.24 -0.655912
5.25 -0.677262
5.26 -0.690473
5.27 -0.693822
5.28 -0.688961
5.29 -0.675172
5.3 -0.652866
5.31 -0.623363
5.32 -0.586006
5.33 -0.542884
5.34 -0.49455
5.35 -0.44188
5.36 -0.386433
5.37 -0.329007
5.38 -0.270975
5.39 -0.213402
5.4 -0.157516
5.41 -0.104005
5.42 -0.0541596
5.43 -0.00848631
5.44 0.0326201
5.45 0.0678796
5.46 0.0979413
5.47 0.122023
5.48 0.140225
5.49 0.153182
5.5 0.160055
5.51 0.162245
5.52 0.159775
5.53 0.153027
5.54 0.142988
5.55 0.129691
5.56 0.114126
5.57 0.096762
5.58 0.0780159
5.59 0.058525
5.6 0.0386283
5.61 0.0187195
5.62 -0.000928518
5.63 -0.0200266
5.64 -0.0385088
5.65 -0.0561946
5.66 -0.0730621
5.67 -0.0891659
5.68 -0.104372
5.69 -0.118873
5.7 -0.132639
5.71 -0.145692
5.72 -0.158122
5.73 -0.169791
5.74 -0.180763
5.75 -0.190921
5.76 -0.200071
5.77 -0.208187
5.78 -0.214872
5.79 -0.220035
5.8 -0.223445
5.81 -0.224575
5.82 -0.223508
5.83 -0.21966
5.84 -0.212926
5.85 -0.203289
5.86 -0.190015
5.87 -0.173615
5.88 -0.153702
5.89 -0.130301
5.9 -0.103842
5.91 -0.073901
5.92 -0.0412719
5.93 -0.00609308
5.94 0.0313531
5.95 0.070378
5.96 0.110703
5.97 0.15165
5.98 0.192686
5.99 0.233184
6 0.272678
6.01 0.310416
6.02 0.345972
6.03 0.378981
6.04 0.4085
6.05 0.434724
6.06 0.456928
6.07 0.474916
6.08 0.488908
6.09 0.497928
6.1 0.502808
6.11 0.503248
6.12 0.499222
6.13 0.491412
6.14 0.479402
6.15 0.46403
6.16 0.445545
6.17 0.424091
6.18 0.400467
6.19 0.374809
6.2 0.347739
6.21 0.31972
6.22 0.291124
6.23 0.262459
6.24 0.23415
6.25 0.20659
6.26 0.180046
6.27 0.155109
6.28 0.131766
6.29 0.110408
6.3 0.0912636
6.31 0.0742204
6.32 0.0597753
6.33 0.0475826
6.34 0.0377126
6.35 0.0302422
6.36 0.0247353
6.37 0.0213116
6.38 0.0195398
6.39 0.0191463
6.4 0.0199677
6.41 0.0215061
6.42 0.0234876
6.43 0.0255209
6.44 0.0272688
6.45 0.0282632
6.46 0.0283062
6.47 0.0269828
6.48 0.024005
6.49 0.0193288
6.5 0.0124096
6.51 0.00348865
6.52 -0.00760274
6.53 -0.0209573
6.54 -0.0362107
6.55 -0.0535052
6.56 -0.0723788
6.57 -0.0925544
6.58 -0.113779
6.59 -0.135519
6.6 -0.157372
6.61 -0.178854
6.62 -0.199535
6.63 -0.218726
6.64 -0.236223
6.65 -0.251383
6.66 -0.263832
6.67 -0.273512
6.68 -0.279519
6.69 -0.282287
6.7 -0.281445
6.71 -0.27683
6.72 -0.268934
6.73 -0.257325
6.74 -0.242705
6.75 -0.225303
6.76 -0.205277
6.77 -0.183402
6.78 -0.159915
6.79 -0.135464
6.8 -0.110573
6.81 -0.0857817
6.82 -0.0615685
6.83 -0.0385133
6.84 -0.0170413
6.85 0.00261889
6.86 0.0196914
6.87 0.0343822
6.88 0.0462759
6.89 0.055197
6.9 0.061433
6.91 0.0645127
6.92 0.0649842
6.93 0.0629032
6.94 0.0583193
6.95 0.0518058
6.96 0.0433738
6.97 0.0335232
6.98 0.0225843
6.99 0.0107833
7 -0.00144311
7.01 -0.0138323
7.02 -0.0260888
7.03 -0.0379872
7.04 -0.0491969
7.05 -0.0596477
7.06 -0.0690935
7.07 -0.0773847
7.08 -0.0845314
7.09 -0.0901894
7.1 -0.0945043
7.11 -0.0973178
7.12 -0.0984586
7.13 -0.0980564
7.14 -0.0957421
7.15 -0.0916224
7.16 -0.0855813
7.17 -0.0772586
7.18 -0.0668561
7.19 -0.0539202
7.2 -0.0384623
7.21 -0.0204814
7.22 0.000599804
7.23 0.0243628
7.24 0.051183
7.25 0.0810472
7.26 0.113647
7.27 0.149456
7.28 0.187787
7.29 0.228619
7.3 0.271742
7.31 0.316554
7.32 0.362877
7.33 0.410038
7.34 0.457532
7.35 0.504743
7.36 0.551133
7.37 0.595893
7.38 0.638517
7.39 0.678507
7.4 0.71481
7.41 0.747514
7.42 0.775708
7.43 0.79914
7.44 0.817965
7.45 0.83099
7.46 0.839191
7.47 0.842161
7.48 0.839946
7.49 0.833352
7.5 0.821956
7.51 0.806862
7.52 0.788425
7.53 0.767006
7.54 0.743566
7.55 0.718456
7.56 0.692447
7.57 0.666111
7.58 0.640018
7.59 0.614593
7.6 0.590352
7.61 0.567567
7.62 0.546342
7.63 0.527115
7.64 0.509549
7.65 0.493719
7.66 0.479432
7.67 0.466274
7.68 0.454049
7.69 0.442201
7.7 0.430289
7.71 0.417774
7.72 0.404259
7.73 0.389022
7.74 0.371786
7.75 0.352151
7.76 0.329445
7.77 0.303852
7.78 0.274762
7.79 0.242285
7.8 0.2066
7.81 0.167261
7.82 0.125065
7.83 0.0799823
7.84 0.0324247
7.85 -0.0169786
7.86 -0.0680368
7.87 -0.119956
7.88 -0.172253
7.89 -0.224343
7.9 -0.275736
7.91 -0.325709
7.92 -0.373948
7.93 -0.420001
7.94 -0.463238
7.95 -0.503758
7.96 -0.540902
7.97 -0.574764
7.98 -0.605392
7.99 -0.632275
8 -0.656077
8.01 -0.676558
8.02 -0.693993
8.03 -0.708854
8.04 -0.720889
8.05 -0.73088
8.06 -0.738925
8.07 -0.745279
8.08 -0.750386
8.09 -0.754303
8.1 -0.757414
8.11 -0.759872
8.12 -0.761787
8.13 -0.763329
8.14 -0.764498
8.15 -0.76534
8.16 -0.76583
8.17 -0.765836
8.18 -0.765326
8.19 -0.764084
8.2 -0.761969
8.21 -0.758875
8.22 -0.754375
8.23 -0.748519
8.24 -0.740965
8.25 -0.731495
8.26 -0.720141
8.27 -0.706343
8.28 -0.690332
8.29 -0.671878
8.3 -0.650738
8.31 -0.627198
8.32 -0.60083
8.33 -0.571943
8.34 -0.540585
8.35 -0.506551
8.36 -0.470339
8.37 -0.431795
8.38 -0.391226
8.39 -0.34893
8.4 -0.304855
8.41 -0.25954
8.42 -0.213118
8.43 -0.165895
8.44 -0.118219
8.45 -0.0703582
8.46 -0.0226505
8.47 0.0245816
8.48 0.0709798
8.49 0.116358
8.5 0.160203
8.51 0.202423
8.52 0.242748
8.53 0.280733
8.54 0.316521
8.55 0.349607
8.56 0.380058
8.57 0.407899
8.58 0.432661
8.59 0.454839
8.6 0.47416
8.61 0.490773
8.62 0.505018
8.63 0.516557
8.64 0.526038
8.65 0.533466
8.66 0.539004
8.67 0.543061
8.68 0.545602
8.69 0.547035
8.7 0.547506
8.71 0.547124
8.72 0.546138
8.73 0.544572
8.74 0.542558
8.75 0.540143
8.76 0.537278
8.77 0.534008
8.78 0.530216
8.79 0.525835
8.8 0.520814
8.81 0.514886
8.82 0.508092
8.83 0.500226
8.84 0.491167
8.85 0.480963
8.86 0.469328
8.87 0.456459
8.88 0.44232
8.89 0.426908
8.9 0.410498
8.91 0.393114
8.92 0.375075
8.93 0.356631
8.94 0.338069
8.95 0.319716
8.96 0.30197
8.97 0.285159
8.98 0.269552
8.99 0.255757
9 0.243765
9.01 0.234045
9.02 0.226812
9.03 0.22197
9.04 0.220116
9.05 0.220784
9.06 0.224091
9.07 0.230024
9.08 0.238079
9.09 0.248327
9.1 0.260184
9.11 0.273306
9.12 0.287363
9.13 0.301805
9.14 0.316203
9.15 0.330107
9.16 0.343138
9.17 0.354701
9.18 0.364694
9.19 0.372628
9.2 0.378304
9.21 0.381776
9.22 0.382464
9.23 0.380842
9.24 0.376761
9.25 0.370274
9.26 0.361813
9.27 0.351267
9.28 0.339166
9.29 0.325736
9.3 0.31118
9.31 0.295917
9.32 0.280121
9.33 0.264069
9.34 0.247945
9.35 0.231889
9.36 0.215963
9.37 0.200194
9.38 0.184523
9.39 0.168841
9.4 0.152946
9.41 0.136665
9.42 0.119702
9.43 0.101751
9.44 0.0826465
9.45 0.0618305
9.46 0.0392858
9.47 0.0146978
9.48 -0.0122796
9.49 -0.041465
9.5 -0.0732931
9.51 -0.107483
9.52 -0.143925
9.53 -0.182695
9.54 -0.223196
9.55 -0.265303
9.56 -0.308512
9.57 -0.352327
9.58 -0.39626
9.59 -0.439766
9.6 -0.482231
9.61 -0.523076
9.62 -0.561972
9.63 -0.597941
9.64 -0.631015
9.65 -0.660631
9.66 -0.686289
9.67 -0.708267
9.68 -0.72578
9.69 -0.739309
9.7 -0.748876
9.71 -0.754223
9.72 -0.756169
9.73 -0.754538
9.74 -0.749936
9.75 -0.742867
9.76 -0.733417
9.77 -0.722403
9.78 -0.710092
9.79 -0.696947
9.8 -0.683402
9.81 -0.66978
9.82 -0.656385
9.83 -0.643467
9.84 -0.631225
9.85 -0.619684
9.86 -0.609021
9.87 -0.599105
9.88 -0.58989
9.89 -0.581313
9.9 -0.573148
9.91 -0.565272
9.92 -0.557477
9.93 -0.549589
9.94 -0.541401
9.95 -0.532818
9.96 -0.523665
9.97 -0.513876
9.98 -0.503461
9.99 -0.492286
10 -0.480525
10.01 -0.468197
10.02 -0.455405
10.03 -0.442321
10.04 -0.429054
10.05 -0.415781
10.06 -0.40264
10.07 -0.389778
10.08 -0.377251
10.09 -0.365181
10.1 -0.353535
10.11 -0.342275
10.12 -0.331344
10.13 -0.320551
10.14 -0.309697
10.15 -0.298524
10.16 -0.286778
10.17 -0.273967
10.18 -0.259931
10.19 -0.244171
10.2 -0.226315
10.21 -0.206266
10.22 -0.183233
10.23 -0.157446
10.24 -0.128553
10.25 -0.0962762
10.26 -0.0610085
10.27 -0.0223106
10.28 0.0192645
10.29 0.0634861
10.3 0.110249
10.31 0.158773
10.32 0.208759
10.33 0.259523
10.34 0.310447
10.35 0.360797
10.36 0.410019
10.37 0.457293
10.38 0.50198
10.39 0.543767
10.4 0.581394
10.41 0.615112
10.42 0.644218
10.43 0.668231
10.44 0.687556
10.45 0.701237
10.46 0.710009
10.47 0.713867
10.48 0.712599
10.49 0.70719
10.5 0.69741
10.51 0.684051
10.52 0.667672
10.53 0.648404
10.54 0.627206
10.55 0.604378
10.56 0.580492
10.57 0.556064
10.58 0.531486
10.59 0.50715
10.6 0.483392
10.61 0.460487
10.62 0.438515
10.63 0.417787
10.64 0.398182
10.65 0.379743
10.66 0.362495
10.67 0.346195
10.68 0.330857
10.69 0.316241
10.7 0.302188
10.71 0.288594
10.72 0.27525
10.73 0.262055
10.74 0.248901
10.75 0.235723
10.76 0.22248
10.77 0.209194
10.78 0.195911
10.79 0.182722
10.8 0.169728
10.81 0.157148
10.82 0.145091
10.83 0.133777
10.84 0.123469
10.85 0.114235
10.86 0.106481
10.87 0.10023
10.88 0.0956424
10.89 0.0930579
10.9 0.0922845
10.91 0.0936533
10.92 0.0970551
10.93 0.102376
10.94 0.109876
10.95 0.1191
10.96 0.1301
10.97 0.142667
10.98 0.156463
10.99 0.171462
11 0.187199
11.01 0.203447
11.02 0.219902
11.03 0.236246
11.04 0.252096
11.05 0.267194
11.06 0.281215
11.07 0.293713
11.08 0.304614
11.09 0.313358
11.1 0.319843
11.11 0.323906
11.12 0.324922
11.13 0.323182
11.14 0.318165
11.15 0.309822
11.16 0.298336
11.17 0.28295
11.18 0.264332
11.19 0.242179
11.2 0.216467
11.21 0.187668
11.22 0.155348
11.23 0.120177
11.24 0.0822557
11.25 0.0416635
11.26 -0.00096599
11.27 -0.0455924
11.28 -0.0916603
11.29 -0.138776
11.3 -0.186615
11.31 -0.234665
11.32 -0.282504
11.33 -0.329707
11.34 -0.375943
11.35 -0.420568
11.36 -0.463512
11.37 -0.50427
11.38 -0.542534
11.39 -0.578342
11.4 -0.610989
11.41 -0.640831
11.42 -0.667634
11.43 -0.691195
11.44 -0.711946
11.45 -0.72949
11.46 -0.744291
11.47 -0.756491
11.48 -0.765991
11.49 -0.773372
11.5 -0.778548
11.51 -0.781863
11.52 -0.783592
11.53 -0.783662
11.54 -0.782496
11.55 -0.780071
11.56 -0.77649
11.57 -0.771904
11.58 -0.766108
11.59 -0.759275
11.6 -0.751257
11.61 -0.741902
11.62 -0.731256
11.63 -0.718931
11.64 -0.704991
11.65 -0.689271
11.66 -0.671455
11.67 -0.651733
11.68 -0.629731
11.69 -0.605583
11.7 -0.579367
11.71 -0.550821
11.72 -0.520418
11.73 -0.48809
11.74 -0.454102
11.75 -0.418822
11.76 -0.382319
11.77 -0.345127
11.78 -0.307528
11.79 -0.269896
11.8 -0.232571
11.81 -0.196018
11.82 -0.160463
11.83 -0.126238
11.84 -0.0937375
11.85 -0.0629388
11.86 -0.0342931
11.87 -0.0077094
11.88 0.0168073
11.89 0.038992
11.9 0.0592694
11.91 0.0775161
11.92 0.0939885
11.93 0.108993
11.94 0.122501
11.95 0.135001
11.96 0.146621
11.97 0.157591
11.98 0.168159
11.99 0.178437
12 0.188589
12.01 0.198677
12.02 0.208716
12.03 0.218679
12.04 0.228442
12.05 0.237878
12.06 0.246798
12.07 0.254872
12.08 0.261967
12.09 0.267633
12.1 0.271647
12.11 0.273824
12.12 0.273519
12.13 0.270907
12.14 0.265521
12.15 0.257225
12.16 0.246212
12.17 0.231891
12.18 0.214853
12.19 0.195019
12.2 0.17247
12.21 0.147765
12.22 0.120878
12.23 0.0924403
12.24 0.0628221
12.25 0.0323938
12.26 0.0017025
12.27 -0.0287915
12.28 -0.0586443
12.29 -0.0874761
12.3 -0.11467
12.31 -0.140145
12.32 -0.163378
12.33 -0.184163
12.34 -0.202541
12.35 -0.217834
12.36 -0.230523
12.37 -0.240351
12.38 -0.247276
12.39 -0.251691
12.4 -0.253249
12.41 -0.252472
12.42 -0.249431
12.43 -0.244119
12.44 -0.236994
12.45 -0.227938
12.46 -0.21727
12.47 -0.205146
12.48 -0.191487
12.49 -0.176621
12.5 -0.16047
12.51 -0.143151
12.52 -0.124801
12.53 -0.105279
12.54 -0.0848509
12.55 -0.0634993
12.56 -0.0413177
12.57 -0.0185078
12.58 0.00486732
12.59 0.028526
12.6 0.0522445
12.61 0.075716
12.62 0.0986665
12.63 0.120601
12.64 0.141231
12.65 0.160162
12.66 0.176711
12.67 0.190825
12.68 0.201725
12.69 0.209202
12.7 0.21314
12.71 0.212577
12.72 0.208072
12.73 0.19906
12.74 0.185537
12.75 0.167994
12.76 0.145799
12.77 0.119969
12.78 0.0906086
12.79 0.0580394
12.8 0.0231386
12.81 -0.0138342
12.82 -0.05199
12.83 -0.0906927
12.84 -0.129233
12.85 -0.166988
12.86 -0.203135
12.87 -0.237174
12.88 -0.268685
12.89 -0.296735
12.9 -0.321533
12.91 -0.34242
12.92 -0.359325
12.93 -0.372561
12.94 -0.381418
12.95 -0.386835
12.96 -0.388765
12.97 -0.387466
12.98 -0.383674
12.99 -0.377432
13 -0.369532
13.01 -0.360385
13.02 -0.350388
13.03 -0.340058
13.04 -0.329749
13.05 -0.319766
13.06 -0.310314
13.07 -0.301623
13.08 -0.29362
13.09 -0.286338
13.1 -0.279607
13.11 -0.273187
13.12 -0.266797
13.13 -0.260096
13.14 -0.252659
13.15 -0.244048
13.16 -0.234007
13.17 -0.221805
13.18 -0.20741
13.19 -0.190426
