# xPDFsuite Configuration #
[PDF]
wavelength = 0.1
dataformat = Qnm
inputfile = A3-Li-TiO2-12h-p2_020.chi
backgroundfile = A2_Bkg-Li_d22-00000.chi
mode = xray
bgscale = 0.91
composition = TiO2
outputtype = gr
qmaxinst = 21.4
qmin = 0.1
qmax = 21.4
rmax = 100.0
rmin = 0.0
rstep = 0.01
rpoly = 0.9

[Misc]
inputdir = D:/APS_March_2019/Run3/Processed-Data/A3-Li-TiO2-12h-p2/chi-files
savedir = D:/APS_March_2019/Run3/Processed-Data/A3-Li-TiO2-12h-p2
backgroundfilefull = D:/APS_March_2019/Calib-Bkg/A2_Bkg-Li_d22-00000.chi

#### start data
#S 1
#L r($\AA$)  G($\AA^{-2}$)
0 0
0.01 -0.000541422
0.02 -0.00105927
0.03 -0.0015285
0.04 -0.00192559
0.05 -0.0022419
0.06 -0.00244622
0.07 -0.00254445
0.08 -0.00252848
0.09 -0.00238988
0.1 -0.00215024
0.11 -0.0018052
0.12 -0.00137951
0.13 -0.000892738
0.14 -0.000361696
0.15 0.000183186
0.16 0.00071591
0.17 0.001209
0.18 0.00164022
0.19 0.00196578
0.2 0.00217895
0.21 0.00224353
0.22 0.00213417
0.23 0.00184952
0.24 0.00133268
0.25 0.000601707
0.26 -0.000369801
0.27 -0.00161093
0.28 -0.00309766
0.29 -0.00488004
0.3 -0.00693076
0.31 -0.00924826
0.32 -0.0118559
0.33 -0.0146962
0.34 -0.0177739
0.35 -0.0210358
0.36 -0.0244221
0.37 -0.0278706
0.38 -0.0312812
0.39 -0.034529
0.4 -0.0374663
0.41 -0.0399691
0.42 -0.0417151
0.43 -0.0426082
0.44 -0.0423381
0.45 -0.0405572
0.46 -0.0371728
0.47 -0.0315519
0.48 -0.0236527
0.49 -0.0131441
0.5 0.000560338
0.51 0.0172633
0.52 0.0376584
0.53 0.0616511
0.54 0.0892014
0.55 0.120902
0.56 0.156017
0.57 0.194776
0.58 0.236789
0.59 0.281398
0.6 0.328526
0.61 0.377075
0.62 0.426391
0.63 0.475533
0.64 0.523596
0.65 0.569128
0.66 0.611328
0.67 0.648927
0.68 0.68023
0.69 0.704967
0.7 0.720865
0.71 0.727667
0.72 0.724719
0.73 0.709821
0.74 0.684305
0.75 0.646461
0.76 0.59671
0.77 0.536111
0.78 0.463056
0.79 0.38047
0.8 0.288447
0.81 0.188275
0.82 0.08224
0.83 -0.0287458
0.84 -0.142015
0.85 -0.255633
0.86 -0.367257
0.87 -0.475079
0.88 -0.576054
0.89 -0.668821
0.9 -0.751605
0.91 -0.821312
0.92 -0.878543
0.93 -0.920424
0.94 -0.947084
0.95 -0.959113
0.96 -0.954001
0.97 -0.935162
0.98 -0.902081
0.99 -0.856268
1 -0.800546
1.01 -0.735305
1.02 -0.664383
1.03 -0.589897
1.04 -0.514548
1.05 -0.440975
1.06 -0.372504
1.07 -0.311076
1.08 -0.259027
1.09 -0.2196
1.1 -0.192614
1.11 -0.18127
1.12 -0.185266
1.13 -0.204241
1.14 -0.240341
1.15 -0.290052
1.16 -0.353664
1.17 -0.429058
1.18 -0.513208
1.19 -0.604984
1.2 -0.700287
1.21 -0.796439
1.22 -0.890153
1.23 -0.978833
1.24 -1.05814
1.25 -1.12657
1.26 -1.18143
1.27 -1.2193
1.28 -1.24098
1.29 -1.2428
1.3 -1.226
1.31 -1.19117
1.32 -1.13659
1.33 -1.06662
1.34 -0.981283
1.35 -0.883614
1.36 -0.777114
1.37 -0.663691
1.38 -0.547843
1.39 -0.432834
1.4 -0.322376
1.41 -0.219114
1.42 -0.128106
1.43 -0.0503556
1.44 0.0111508
1.45 0.0532476
1.46 0.077157
1.47 0.0790684
1.48 0.0611197
1.49 0.0239967
1.5 -0.0333493
1.51 -0.10622
1.52 -0.19431
1.53 -0.294026
1.54 -0.401833
1.55 -0.515363
1.56 -0.630309
1.57 -0.743305
1.58 -0.850837
1.59 -0.95055
1.6 -1.03753
1.61 -1.11143
1.62 -1.16945
1.63 -1.20924
1.64 -1.23218
1.65 -1.23496
1.66 -1.22018
1.67 -1.18842
1.68 -1.13931
1.69 -1.07695
1.7 -1.0016
1.71 -0.916491
1.72 -0.824335
1.73 -0.726851
1.74 -0.627273
1.75 -0.527724
1.76 -0.430352
1.77 -0.336566
1.78 -0.248763
1.79 -0.166851
1.8 -0.091842
1.81 -0.0240595
1.82 0.0376193
1.83 0.0928975
1.84 0.143654
1.85 0.191049
1.86 0.236445
1.87 0.281625
1.88 0.328304
1.89 0.377873
1.9 0.431496
1.91 0.490943
1.92 0.555971
1.93 0.627575
1.94 0.70536
1.95 0.788278
1.96 0.876086
1.97 0.966414
1.98 1.05754
1.99 1.14703
2 1.23269
2.01 1.3106
2.02 1.37909
2.03 1.435
2.04 1.47458
2.05 1.49769
2.06 1.49937
2.07 1.48018
2.08 1.43935
2.09 1.37366
2.1 1.28705
2.11 1.17762
2.12 1.04807
2.13 0.901661
2.14 0.738392
2.15 0.564254
2.16 0.381752
2.17 0.19498
2.18 0.00808316
2.19 -0.174182
2.2 -0.348615
2.21 -0.511016
2.22 -0.657056
2.23 -0.785958
2.24 -0.892058
2.25 -0.976183
2.26 -1.03716
2.27 -1.0721
2.28 -1.08511
2.29 -1.07421
2.3 -1.0428
2.31 -0.994028
2.32 -0.928333
2.33 -0.851676
2.34 -0.76648
2.35 -0.676792
2.36 -0.586465
2.37 -0.499698
2.38 -0.419247
2.39 -0.34868
2.4 -0.291177
2.41 -0.247211
2.42 -0.220969
2.43 -0.211054
2.44 -0.218069
2.45 -0.243064
2.46 -0.282583
2.47 -0.337076
2.48 -0.403175
2.49 -0.478146
2.5 -0.56006
2.51 -0.644893
2.52 -0.729739
2.53 -0.81139
2.54 -0.887407
2.55 -0.953392
2.56 -1.00881
2.57 -1.05067
2.58 -1.07712
2.59 -1.08889
2.6 -1.08259
2.61 -1.06083
2.62 -1.02348
2.63 -0.970463
2.64 -0.905124
2.65 -0.827339
2.66 -0.74027
2.67 -0.646048
2.68 -0.546207
2.69 -0.443673
2.7 -0.340268
2.71 -0.237971
2.72 -0.138234
2.73 -0.0431266
2.74 0.0471456
2.75 0.131391
2.76 0.209245
2.77 0.281343
2.78 0.34689
2.79 0.407465
2.8 0.463536
2.81 0.515854
2.82 0.565819
2.83 0.614158
2.84 0.662
2.85 0.710134
2.86 0.759307
2.87 0.809763
2.88 0.861831
2.89 0.915259
2.9 0.969575
2.91 1.02408
2.92 1.07778
2.93 1.1293
2.94 1.17719
2.95 1.22038
2.96 1.25597
2.97 1.28367
2.98 1.30133
2.99 1.30708
3 1.30118
3.01 1.28045
3.02 1.24613
3.03 1.19765
3.04 1.13378
3.05 1.05708
3.06 0.966473
3.07 0.864246
3.08 0.752164
3.09 0.630729
3.1 0.503313
3.11 0.371374
3.12 0.237316
3.13 0.103321
3.14 -0.0280503
3.15 -0.155291
3.16 -0.276173
3.17 -0.388843
3.18 -0.492946
3.19 -0.585647
3.2 -0.667814
3.21 -0.738629
3.22 -0.797116
3.23 -0.845054
3.24 -0.881213
3.25 -0.907342
3.26 -0.924362
3.27 -0.932094
3.28 -0.932885
3.29 -0.926835
3.3 -0.915206
3.31 -0.899145
3.32 -0.87861
3.33 -0.854902
3.34 -0.828042
3.35 -0.798202
3.36 -0.765685
3.37 -0.729756
3.38 -0.690633
3.39 -0.647718
3.4 -0.600267
3.41 -0.548374
3.42 -0.490744
3.43 -0.427604
3.44 -0.35868
3.45 -0.283191
3.46 -0.202178
3.47 -0.115201
3.48 -0.0232024
3.49 0.0728092
3.5 0.172304
3.51 0.273465
3.52 0.374953
3.53 0.475049
3.54 0.572288
3.55 0.663937
3.56 0.749157
3.57 0.825726
3.58 0.891538
3.59 0.946498
3.6 0.987261
3.61 1.01463
3.62 1.02774
3.63 1.02487
3.64 1.00829
3.65 0.976341
3.66 0.930942
3.67 0.873534
3.68 0.803767
3.69 0.725107
3.7 0.638258
3.71 0.545359
3.72 0.448661
3.73 0.349603
3.74 0.250401
3.75 0.15274
3.76 0.058296
3.77 -0.0320489
3.78 -0.116285
3.79 -0.194449
3.8 -0.265803
3.81 -0.329538
3.82 -0.386669
3.83 -0.436418
3.84 -0.479928
3.85 -0.517911
3.86 -0.550471
3.87 -0.579235
3.88 -0.6046
3.89 -0.627561
3.9 -0.648982
3.91 -0.66931
3.92 -0.689217
3.93 -0.708975
3.94 -0.728729
3.95 -0.748437
3.96 -0.76781
3.97 -0.786502
3.98 -0.803934
3.99 -0.819318
4 -0.832231
4.01 -0.841416
4.02 -0.846537
4.03 -0.846965
4.04 -0.841534
4.05 -0.830724
4.06 -0.813551
4.07 -0.79039
4.08 -0.761773
4.09 -0.72727
4.1 -0.688534
4.11 -0.646019
4.12 -0.600903
4.13 -0.554565
4.14 -0.508343
4.15 -0.4636
4.16 -0.421842
4.17 -0.384664
4.18 -0.352695
4.19 -0.328102
4.2 -0.31087
4.21 -0.301725
4.22 -0.301846
4.23 -0.309972
4.24 -0.326984
4.25 -0.351607
4.26 -0.382698
4.27 -0.419897
4.28 -0.460829
4.29 -0.504222
4.3 -0.548145
4.31 -0.590833
4.32 -0.629732
4.33 -0.66368
4.34 -0.690453
4.35 -0.708132
4.36 -0.716423
4.37 -0.712261
4.38 -0.696506
4.39 -0.668281
4.4 -0.626411
4.41 -0.57291
4.42 -0.506541
4.43 -0.429351
4.44 -0.342688
4.45 -0.24689
4.46 -0.144965
4.47 -0.0380463
4.48 0.071664
4.49 0.182143
4.5 0.291224
4.51 0.397298
4.52 0.498268
4.53 0.592378
4.54 0.67904
4.55 0.755436
4.56 0.822206
4.57 0.878231
4.58 0.922442
4.59 0.956249
4.6 0.978092
4.61 0.989625
4.62 0.99147
4.63 0.983347
4.64 0.967617
4.65 0.944314
4.66 0.914986
4.67 0.881018
4.68 0.842878
4.69 0.802323
4.7 0.760136
4.71 0.71733
4.72 0.674758
4.73 0.633369
4.74 0.593621
4.75 0.556184
4.76 0.521669
4.77 0.490084
4.78 0.462289
4.79 0.43807
4.8 0.417652
4.81 0.401572
4.82 0.389313
4.83 0.38152
4.84 0.377917
4.85 0.378351
4.86 0.383458
4.87 0.392435
4.88 0.405656
4.89 0.422876
4.9 0.443553
4.91 0.468099
4.92 0.495472
4.93 0.525465
4.94 0.557557
4.95 0.590902
4.96 0.624859
4.97 0.658497
4.98 0.690891
4.99 0.720829
5 0.747646
5.01 0.769667
5.02 0.786231
5.03 0.796493
5.04 0.798472
5.05 0.792637
5.06 0.777229
5.07 0.752048
5.08 0.717502
5.09 0.671529
5.1 0.616221
5.11 0.550973
5.12 0.47626
5.13 0.39381
5.14 0.303291
5.15 0.207092
5.16 0.106292
5.17 0.00224203
5.18 -0.103128
5.19 -0.208182
5.2 -0.311272
5.21 -0.410854
5.22 -0.504756
5.23 -0.592465
5.24 -0.671791
5.25 -0.742108
5.26 -0.803177
5.27 -0.852627
5.28 -0.892105
5.29 -0.920448
5.3 -0.937888
5.31 -0.945867
5.32 -0.943183
5.33 -0.932357
5.34 -0.913793
5.35 -0.888279
5.36 -0.857735
5.37 -0.822611
5.38 -0.784621
5.39 -0.744822
5.4 -0.704194
5.41 -0.66375
5.42 -0.624377
5.43 -0.586659
5.44 -0.550974
5.45 -0.518009
5.46 -0.487461
5.47 -0.459595
5.48 -0.434198
5.49 -0.4108
5.5 -0.389395
5.51 -0.369213
5.52 -0.349898
5.53 -0.330974
5.54 -0.311982
5.55 -0.29246
5.56 -0.272159
5.57 -0.250834
5.58 -0.228261
5.59 -0.204596
5.6 -0.179784
5.61 -0.15414
5.62 -0.127981
5.63 -0.101689
5.64 -0.0757332
5.65 -0.0506961
5.66 -0.0270947
5.67 -0.0052998
5.68 0.0137308
5.69 0.0300549
5.7 0.043041
5.71 0.0523551
5.72 0.0582395
5.73 0.059988
5.74 0.0582897
5.75 0.0531985
5.76 0.0448492
5.77 0.0340816
5.78 0.0211033
5.79 0.00676172
5.8 -0.00828103
5.81 -0.0233072
5.82 -0.0376256
5.83 -0.0503838
5.84 -0.0609731
5.85 -0.0689607
5.86 -0.0732425
5.87 -0.0740251
5.88 -0.0705975
5.89 -0.0627415
5.9 -0.0508062
5.91 -0.0339917
5.92 -0.0132111
5.93 0.011549
5.94 0.0401255
5.95 0.0716609
5.96 0.106124
5.97 0.142644
5.98 0.180694
5.99 0.219791
6 0.259233
6.01 0.298464
6.02 0.336951
6.03 0.374265
6.04 0.409689
6.05 0.443148
6.06 0.474052
6.07 0.502142
6.08 0.527452
6.09 0.549164
6.1 0.567752
6.11 0.582847
6.12 0.594245
6.13 0.602325
6.14 0.60645
6.15 0.607127
6.16 0.604286
6.17 0.597654
6.18 0.587806
6.19 0.574334
6.2 0.557647
6.21 0.53797
6.22 0.515062
6.23 0.489641
6.24 0.461658
6.25 0.431515
6.26 0.399704
6.27 0.366346
6.28 0.332144
6.29 0.297492
6.3 0.262918
6.31 0.228898
6.32 0.196151
6.33 0.165011
6.34 0.136036
6.35 0.109885
6.36 0.0865706
6.37 0.0669273
6.38 0.0508452
6.39 0.0384236
6.4 0.0301779
6.41 0.0254075
6.42 0.0243774
6.43 0.0265885
6.44 0.0314516
6.45 0.0388654
6.46 0.047812
6.47 0.0577781
6.48 0.0680171
6.49 0.07783
6.5 0.0862808
6.51 0.0928961
6.52 0.0969311
6.53 0.0976377
6.54 0.0949912
6.55 0.0880326
6.56 0.0770422
6.57 0.0619449
6.58 0.0423965
6.59 0.0192741
6.6 -0.00751055
6.61 -0.0371802
6.62 -0.0689946
6.63 -0.102455
6.64 -0.1365
6.65 -0.170308
6.66 -0.202966
6.67 -0.233794
6.68 -0.26144
6.69 -0.285721
6.7 -0.305731
6.71 -0.320754
6.72 -0.331012
6.73 -0.335379
6.74 -0.334537
6.75 -0.32846
6.76 -0.316948
6.77 -0.301131
6.78 -0.280936
6.79 -0.257373
6.8 -0.231243
6.81 -0.203082
6.82 -0.174019
6.83 -0.144826
6.84 -0.116362
6.85 -0.0892745
6.86 -0.0646896
6.87 -0.0427552
6.88 -0.0242206
6.89 -0.00955351
6.9 0.00143551
6.91 0.00791303
6.92 0.0105288
6.93 0.00925916
6.94 0.00408377
6.95 -0.00416856
6.96 -0.0155401
6.97 -0.0292627
6.98 -0.0448252
6.99 -0.0618877
7 -0.0797354
7.01 -0.0979646
7.02 -0.116105
7.03 -0.133803
7.04 -0.150597
7.05 -0.166392
7.06 -0.180893
7.07 -0.193965
7.08 -0.205693
7.09 -0.21579
7.1 -0.224529
7.11 -0.231879
7.12 -0.23782
7.13 -0.242578
7.14 -0.24599
7.15 -0.248211
7.16 -0.249208
7.17 -0.248759
7.18 -0.246961
7.19 -0.243438
7.2 -0.238084
7.21 -0.230764
7.22 -0.220831
7.23 -0.208451
7.24 -0.193063
7.25 -0.174447
7.26 -0.152712
7.27 -0.127027
7.28 -0.0979763
7.29 -0.0653059
7.3 -0.0289772
7.31 0.0103991
7.32 0.0530304
7.33 0.0981112
7.34 0.145211
7.35 0.19388
7.36 0.243289
7.37 0.292794
7.38 0.34166
7.39 0.389228
7.4 0.434504
7.41 0.477229
7.42 0.51649
7.43 0.551893
7.44 0.583431
7.45 0.61
7.46 0.632402
7.47 0.650299
7.48 0.663801
7.49 0.673702
7.5 0.679854
7.51 0.683347
7.52 0.684728
7.53 0.68463
7.54 0.683962
7.55 0.68347
7.56 0.683872
7.57 0.685787
7.58 0.69007
7.59 0.696798
7.6 0.706626
7.61 0.719578
7.62 0.735431
7.63 0.75453
7.64 0.775959
7.65 0.79942
7.66 0.824206
7.67 0.849434
7.68 0.874116
7.69 0.897349
7.7 0.918025
7.71 0.934846
7.72 0.947327
7.73 0.953648
7.74 0.953597
7.75 0.946457
7.76 0.930741
7.77 0.907302
7.78 0.874799
7.79 0.833742
7.8 0.784735
7.81 0.726806
7.82 0.661974
7.83 0.590199
7.84 0.512456
7.85 0.430211
7.86 0.343793
7.87 0.25501
7.88 0.164833
7.89 0.0744434
7.9 -0.0150938
7.91 -0.102443
7.92 -0.186924
7.93 -0.267683
7.94 -0.343581
7.95 -0.414773
7.96 -0.480117
7.97 -0.539804
7.98 -0.59395
7.99 -0.641744
8 -0.68437
8.01 -0.721494
8.02 -0.753648
8.03 -0.781667
8.04 -0.805233
8.05 -0.825648
8.06 -0.843123
8.07 -0.858107
8.08 -0.871301
8.09 -0.882823
8.1 -0.893236
8.11 -0.902757
8.12 -0.911517
8.13 -0.919722
8.14 -0.927313
8.15 -0.934307
8.16 -0.940617
8.17 -0.945971
8.18 -0.950328
8.19 -0.953315
8.2 -0.954739
8.21 -0.954484
8.22 -0.951933
8.23 -0.947267
8.24 -0.940069
8.25 -0.930138
8.26 -0.917637
8.27 -0.901951
8.28 -0.883508
8.29 -0.862148
8.3 -0.837715
8.31 -0.810647
8.32 -0.780594
8.33 -0.747979
8.34 -0.712928
8.35 -0.67531
8.36 -0.63565
8.37 -0.593831
8.38 -0.550145
8.39 -0.504854
8.4 -0.457874
8.41 -0.409661
8.42 -0.360271
8.43 -0.309917
8.44 -0.258885
8.45 -0.207294
8.46 -0.155475
8.47 -0.103664
8.48 -0.0521618
8.49 -0.00120542
8.5 0.0487564
8.51 0.0975217
8.52 0.144755
8.53 0.189936
8.54 0.233049
8.55 0.27345
8.56 0.31105
8.57 0.345727
8.58 0.376776
8.59 0.404635
8.6 0.428817
8.61 0.449374
8.62 0.466654
8.63 0.480068
8.64 0.490466
8.65 0.497803
8.66 0.502298
8.67 0.504576
8.68 0.504647
8.69 0.503198
8.7 0.500574
8.71 0.497121
8.72 0.493315
8.73 0.489487
8.74 0.48595
8.75 0.482938
8.76 0.480734
8.77 0.479326
8.78 0.478854
8.79 0.479245
8.8 0.480334
8.81 0.482053
8.82 0.484065
8.83 0.486113
8.84 0.48787
8.85 0.489062
8.86 0.489199
8.87 0.488131
8.88 0.485529
8.89 0.481047
8.9 0.474769
8.91 0.466298
8.92 0.455852
8.93 0.443517
8.94 0.429254
8.95 0.413588
8.96 0.396675
8.97 0.378992
8.98 0.360998
8.99 0.343202
9 0.326061
9.01 0.310162
9.02 0.296008
9.03 0.283835
9.04 0.274503
9.05 0.267857
9.06 0.2643
9.07 0.264114
9.08 0.266914
9.09 0.273128
9.1 0.282162
9.11 0.293769
9.12 0.30779
9.13 0.32345
9.14 0.340433
9.15 0.358081
9.16 0.375828
9.17 0.393033
9.18 0.409255
9.19 0.423854
9.2 0.436404
9.21 0.446754
9.22 0.454104
9.23 0.458808
9.24 0.460561
9.25 0.459297
9.26 0.45547
9.27 0.448843
9.28 0.44007
9.29 0.429423
9.3 0.41717
9.31 0.403916
9.32 0.389956
9.33 0.375749
9.34 0.361636
9.35 0.347973
9.36 0.33491
9.37 0.322676
9.38 0.3113
9.39 0.300685
9.4 0.290834
9.41 0.281402
9.42 0.272134
9.43 0.262654
9.44 0.252611
9.45 0.241391
9.46 0.228729
9.47 0.214133
9.48 0.197039
9.49 0.177443
9.5 0.154626
9.51 0.128724
9.52 0.099678
9.53 0.0671137
9.54 0.0316751
9.55 -0.00678355
9.56 -0.0477619
9.57 -0.0907177
9.58 -0.135432
9.59 -0.181066
9.6 -0.227109
9.61 -0.272916
9.62 -0.317952
9.63 -0.361378
9.64 -0.402932
9.65 -0.442034
9.66 -0.478153
9.67 -0.511387
9.68 -0.541035
9.69 -0.567449
9.7 -0.590642
9.71 -0.610445
9.72 -0.627576
9.73 -0.642002
9.74 -0.654312
9.75 -0.665012
9.76 -0.674375
9.77 -0.683073
9.78 -0.691492
9.79 -0.700063
9.8 -0.709092
9.81 -0.718998
9.82 -0.729809
9.83 -0.741683
9.84 -0.754635
9.85 -0.768437
9.86 -0.782994
9.87 -0.797907
9.88 -0.812817
9.89 -0.82724
9.9 -0.840795
9.91 -0.852803
9.92 -0.862898
9.93 -0.870695
9.94 -0.875384
9.95 -0.877114
9.96 -0.87523
9.97 -0.869678
9.98 -0.860678
9.99 -0.847559
10 -0.831188
10.01 -0.81149
10.02 -0.788762
10.03 -0.763707
10.04 -0.736419
10.05 -0.707723
10.06 -0.678074
10.07 -0.647979
10.08 -0.617967
10.09 -0.588551
10.1 -0.560058
10.11 -0.532765
10.12 -0.50705
10.13 -0.48277
10.14 -0.4601
10.15 -0.438829
10.16 -0.418657
10.17 -0.399405
10.18 -0.380517
10.19 -0.361547
10.2 -0.341946
10.21 -0.321279
10.22 -0.298697
10.23 -0.273995
10.24 -0.246577
10.25 -0.21587
10.26 -0.181983
10.27 -0.144133
10.28 -0.102679
10.29 -0.0576253
10.3 -0.00875812
10.31 0.0431087
10.32 0.0979796
10.33 0.155145
10.34 0.213945
10.35 0.273887
10.36 0.334093
10.37 0.393823
10.38 0.452304
10.39 0.508981
10.4 0.562652
10.41 0.613212
10.42 0.659856
10.43 0.701941
10.44 0.739649
10.45 0.771885
10.46 0.799196
10.47 0.821422
10.48 0.838164
10.49 0.850315
10.5 0.857419
10.51 0.860182
10.52 0.859058
10.53 0.853892
10.54 0.845696
10.55 0.834484
10.56 0.82073
10.57 0.804941
10.58 0.787025
10.59 0.767587
10.6 0.746648
10.61 0.724301
10.62 0.700755
10.63 0.67578
10.64 0.649542
10.65 0.621912
10.66 0.592684
10.67 0.561967
10.68 0.529404
10.69 0.495092
10.7 0.459003
10.71 0.420898
10.72 0.381126
10.73 0.339575
10.74 0.296508
10.75 0.252242
10.76 0.206905
10.77 0.161037
10.78 0.115011
10.79 0.0693209
10.8 0.0243924
10.81 -0.019008
10.82 -0.0605941
10.83 -0.0997384
10.84 -0.135758
10.85 -0.168596
10.86 -0.197228
10.87 -0.221755
10.88 -0.241873
10.89 -0.256838
10.9 -0.267258
10.91 -0.272409
10.92 -0.27264
10.93 -0.268279
10.94 -0.25873
10.95 -0.245076
10.96 -0.22714
10.97 -0.205335
10.98 -0.180367
10.99 -0.152052
11 -0.121379
11.01 -0.0885978
11.02 -0.0541064
11.03 -0.0185179
11.04 0.0178719
11.05 0.0545402
11.06 0.0910967
11.07 0.127097
11.08 0.162261
11.09 0.196071
11.1 0.228288
11.11 0.258656
11.12 0.286541
11.13 0.312053
11.14 0.334603
11.15 0.354003
11.16 0.370292
11.17 0.382531
11.18 0.391245
11.19 0.395913
11.2 0.396291
11.21 0.392741
11.22 0.384433
11.23 0.372009
11.24 0.355332
11.25 0.334174
11.26 0.309258
11.27 0.280199
11.28 0.24765
11.29 0.21197
11.3 0.173165
11.31 0.132115
11.32 0.0890081
11.33 0.0444408
11.34 -0.00101971
11.35 -0.0469425
11.36 -0.0927533
11.37 -0.137946
11.38 -0.182034
11.39 -0.224748
11.4 -0.265395
11.41 -0.303997
11.42 -0.340213
11.43 -0.373734
11.44 -0.40482
11.45 -0.433044
11.46 -0.458778
11.47 -0.482139
11.48 -0.503054
11.49 -0.522089
11.5 -0.539247
11.51 -0.554914
11.52 -0.56942
11.53 -0.582859
11.54 -0.595635
11.55 -0.607869
11.56 -0.61972
11.57 -0.63131
11.58 -0.642615
11.59 -0.653651
11.6 -0.664295
11.61 -0.674362
11.62 -0.683721
11.63 -0.691953
11.64 -0.698905
11.65 -0.704252
11.66 -0.707487
11.67 -0.70861
11.68 -0.706989
11.69 -0.702581
11.7 -0.695296
11.71 -0.68453
11.72 -0.670773
11.73 -0.653664
11.74 -0.633382
11.75 -0.610343
11.76 -0.584226
11.77 -0.555877
11.78 -0.525437
11.79 -0.493279
11.8 -0.459989
11.81 -0.425859
11.82 -0.391442
11.83 -0.357141
11.84 -0.323394
11.85 -0.290459
11.86 -0.258783
11.87 -0.228479
11.88 -0.199668
11.89 -0.172641
11.9 -0.147131
11.91 -0.123267
11.92 -0.100845
11.93 -0.0795985
11.94 -0.0594962
11.95 -0.040097
11.96 -0.02121
11.97 -0.00256852
11.98 0.0160716
11.99 0.0349434
12 0.0541635
12.01 0.0738422
12.02 0.0940366
12.03 0.114641
12.04 0.13559
12.05 0.156654
12.06 0.177584
12.07 0.198005
12.08 0.217645
12.09 0.235961
12.1 0.252604
12.11 0.267276
12.12 0.279158
12.13 0.28836
12.14 0.294254
12.15 0.296603
12.16 0.295578
12.17 0.290372
12.18 0.281675
12.19 0.269324
12.2 0.25336
12.21 0.234465
12.22 0.212518
12.23 0.188308
12.24 0.162259
12.25 0.134763
12.26 0.106531
12.27 0.0780414
12.28 0.0498469
12.29 0.0224017
12.3 -0.00366201
12.31 -0.028191
12.32 -0.0506699
12.33 -0.0708987
12.34 -0.0889273
12.35 -0.104185
12.36 -0.117166
12.37 -0.127732
12.38 -0.135958
12.39 -0.142275
12.4 -0.146574
12.41 -0.149368
12.42 -0.150847
12.43 -0.151172
12.44 -0.150705
12.45 -0.149526
12.46 -0.147846
12.47 -0.145769
12.48 -0.143289
12.49 -0.14046
12.5 -0.137173
12.51 -0.133341
12.52 -0.128876
12.53 -0.123464
12.54 -0.117102
12.55 -0.109524
12.56 -0.100561
12.57 -0.0902522
12.58 -0.0782564
12.59 -0.0648197
12.6 -0.0499318
12.61 -0.0336534
12.62 -0.0163655
12.63 0.00176597
12.64 0.0202781
12.65 0.0387482
12.66 0.0566145
12.67 0.0734561
12.68 0.0885326
12.69 0.10137
12.7 0.111592
12.71 0.118142
12.72 0.121209
12.73 0.120033
12.74 0.114359
12.75 0.104473
12.76 0.0894578
12.77 0.0702339
12.78 0.0467169
12.79 0.0190694
12.8 -0.0117945
12.81 -0.0458149
12.82 -0.0819738
12.83 -0.11961
12.84 -0.158029
12.85 -0.196372
12.86 -0.233779
12.87 -0.269545
12.88 -0.303072
12.89 -0.333266
12.9 -0.360138
12.91 -0.382832
12.92 -0.401102
12.93 -0.415155
12.94 -0.423991
12.95 -0.428577
12.96 -0.428693
12.97 -0.42449
12.98 -0.416774
12.99 -0.405372
13 -0.391235
13.01 -0.374757
13.02 -0.356288
13.03 -0.336548
13.04 -0.315818
13.05 -0.29457
13.06 -0.273112
13.07 -0.251674
13.08 -0.230389
13.09 -0.209324
13.1 -0.188428
13.11 -0.167577
13.12 -0.146548
13.13 -0.125128
13.14 -0.102978
13.15 -0.079758
13.16 -0.05529
13.17 -0.0289905
13.18 -0.000879943
13.19 0.0293173
