# xPDFsuite Configuration #
[PDF]
wavelength = 0.1
dataformat = Qnm
inputfile = A3-Li-TiO2-12h-p2_011.chi
backgroundfile = A2_Bkg-Li_d22-00000.chi
mode = xray
bgscale = 0.91
composition = TiO2
outputtype = gr
qmaxinst = 21.4
qmin = 0.1
qmax = 21.4
rmax = 100.0
rmin = 0.0
rstep = 0.01
rpoly = 0.9

[Misc]
inputdir = D:/APS_March_2019/Run3/Processed-Data/A3-Li-TiO2-12h-p2/chi-files
savedir = D:/APS_March_2019/Run3/Processed-Data/A3-Li-TiO2-12h-p2
backgroundfilefull = D:/APS_March_2019/Calib-Bkg/A2_Bkg-Li_d22-00000.chi

#### start data
#S 1
#L r($\AA$)  G($\AA^{-2}$)
0 0
0.01 -0.000246925
0.02 -0.000483106
0.03 -0.00069712
0.04 -0.00087825
0.05 -0.00102255
0.06 -0.00111579
0.07 -0.00116064
0.08 -0.00115337
0.09 -0.00109012
0.1 -0.000980699
0.11 -0.000823108
0.12 -0.000628687
0.13 -0.000406479
0.14 -0.000164492
0.15 8.29801e-05
0.16 0.000323084
0.17 0.000542086
0.18 0.000728463
0.19 0.000858556
0.2 0.000927699
0.21 0.000914431
0.22 0.000802111
0.23 0.000587167
0.24 0.000231994
0.25 -0.000256569
0.26 -0.000899259
0.27 -0.00171947
0.28 -0.00270519
0.29 -0.00389391
0.3 -0.00526921
0.31 -0.00683088
0.32 -0.00859417
0.33 -0.0105163
0.34 -0.012594
0.35 -0.0147824
0.36 -0.0170309
0.37 -0.0192761
0.38 -0.0214411
0.39 -0.023416
0.4 -0.0250802
0.41 -0.0263407
0.42 -0.0269335
0.43 -0.0268023
0.44 -0.0257126
0.45 -0.0234119
0.46 -0.0198573
0.47 -0.0145963
0.48 -0.00763775
0.49 0.0012218
0.5 0.0123545
0.51 0.0255688
0.52 0.041281
0.53 0.0593606
0.54 0.0797134
0.55 0.102626
0.56 0.127557
0.57 0.154534
0.58 0.183214
0.59 0.213119
0.6 0.243993
0.61 0.275164
0.62 0.306081
0.63 0.336057
0.64 0.364565
0.65 0.390509
0.66 0.413507
0.67 0.432751
0.68 0.447157
0.69 0.456743
0.7 0.460085
0.71 0.457216
0.72 0.447885
0.73 0.430864
0.74 0.407205
0.75 0.376057
0.76 0.337894
0.77 0.293539
0.78 0.242346
0.79 0.18616
0.8 0.125304
0.81 0.0607379
0.82 -0.00616146
0.83 -0.074498
0.84 -0.142841
0.85 -0.20995
0.86 -0.274367
0.87 -0.335278
0.88 -0.390807
0.89 -0.440457
0.9 -0.483387
0.91 -0.517957
0.92 -0.544888
0.93 -0.562782
0.94 -0.57205
0.95 -0.573329
0.96 -0.565635
0.97 -0.551093
0.98 -0.529821
0.99 -0.502957
1 -0.472156
1.01 -0.438194
1.02 -0.403003
1.03 -0.36797
1.04 -0.334709
1.05 -0.304355
1.06 -0.278938
1.07 -0.259071
1.08 -0.245797
1.09 -0.240663
1.1 -0.243019
1.11 -0.254229
1.12 -0.273611
1.13 -0.300493
1.14 -0.335332
1.15 -0.375929
1.16 -0.421722
1.17 -0.471114
1.18 -0.522325
1.19 -0.573678
1.2 -0.623367
1.21 -0.669424
1.22 -0.709822
1.23 -0.743627
1.24 -0.767877
1.25 -0.782537
1.26 -0.786319
1.27 -0.777504
1.28 -0.757429
1.29 -0.724321
1.3 -0.679671
1.31 -0.624462
1.32 -0.558441
1.33 -0.484674
1.34 -0.403995
1.35 -0.318711
1.36 -0.23116
1.37 -0.1436
1.38 -0.0583326
1.39 0.0220572
1.4 0.0951096
1.41 0.159656
1.42 0.211869
1.43 0.25198
1.44 0.278184
1.45 0.28859
1.46 0.284774
1.47 0.26433
1.48 0.229323
1.49 0.180633
1.5 0.117914
1.51 0.0447531
1.52 -0.0382815
1.53 -0.12848
1.54 -0.223264
1.55 -0.320626
1.56 -0.417712
1.57 -0.511983
1.58 -0.600966
1.59 -0.683164
1.6 -0.754901
1.61 -0.816206
1.62 -0.865071
1.63 -0.899813
1.64 -0.921574
1.65 -0.927846
1.66 -0.92059
1.67 -0.900192
1.68 -0.866229
1.69 -0.821739
1.7 -0.7667
1.71 -0.703453
1.72 -0.633959
1.73 -0.559238
1.74 -0.48186
1.75 -0.403275
1.76 -0.325167
1.77 -0.248797
1.78 -0.175976
1.79 -0.107045
1.8 -0.0430375
1.81 0.0154006
1.82 0.0687245
1.83 0.116068
1.84 0.158496
1.85 0.196347
1.86 0.229919
1.87 0.260497
1.88 0.288486
1.89 0.314915
1.9 0.34054
1.91 0.365999
1.92 0.391824
1.93 0.418427
1.94 0.44594
1.95 0.474244
1.96 0.503166
1.97 0.532109
1.98 0.560364
1.99 0.586986
2 0.611208
2.01 0.631268
2.02 0.646605
2.03 0.655858
2.04 0.657385
2.05 0.651237
2.06 0.635218
2.07 0.60967
2.08 0.574329
2.09 0.527849
2.1 0.472105
2.11 0.406408
2.12 0.332128
2.13 0.250858
2.14 0.162954
2.15 0.0711615
2.16 -0.0230435
2.17 -0.117563
2.18 -0.210465
2.19 -0.298987
2.2 -0.381828
2.21 -0.456756
2.22 -0.521501
2.23 -0.575927
2.24 -0.61693
2.25 -0.645202
2.26 -0.660215
2.27 -0.660456
2.28 -0.648356
2.29 -0.622906
2.3 -0.586092
2.31 -0.539762
2.32 -0.484294
2.33 -0.423064
2.34 -0.357586
2.35 -0.29024
2.36 -0.223249
2.37 -0.159298
2.38 -0.0999198
2.39 -0.0473828
2.4 -0.00373129
2.41 0.0307563
2.42 0.0532012
2.43 0.0644462
2.44 0.0639104
2.45 0.0505991
2.46 0.0266751
2.47 -0.00862263
2.48 -0.0532356
2.49 -0.105567
2.5 -0.164899
2.51 -0.228389
2.52 -0.294552
2.53 -0.361267
2.54 -0.426708
2.55 -0.488392
2.56 -0.545292
2.57 -0.595398
2.58 -0.637178
2.59 -0.670542
2.6 -0.692984
2.61 -0.705582
2.62 -0.70775
2.63 -0.698858
2.64 -0.680711
2.65 -0.65251
2.66 -0.616083
2.67 -0.572518
2.68 -0.522198
2.69 -0.467341
2.7 -0.408698
2.71 -0.347768
2.72 -0.285836
2.73 -0.224053
2.74 -0.163393
2.75 -0.104868
2.76 -0.0492497
2.77 0.00323712
2.78 0.0515117
2.79 0.0960109
2.8 0.136439
2.81 0.17264
2.82 0.205295
2.83 0.234084
2.84 0.25975
2.85 0.282606
2.86 0.302716
2.87 0.320774
2.88 0.336758
2.89 0.350988
2.9 0.363647
2.91 0.374473
2.92 0.383684
2.93 0.390903
2.94 0.395881
2.95 0.398522
2.96 0.397879
2.97 0.394099
2.98 0.386517
2.99 0.374552
3 0.358379
3.01 0.3369
3.02 0.310577
3.03 0.279209
3.04 0.242351
3.05 0.2009
3.06 0.154463
3.07 0.103854
3.08 0.0497095
3.09 -0.00776545
3.1 -0.0673287
3.11 -0.128387
3.12 -0.189997
3.13 -0.251303
3.14 -0.31118
3.15 -0.369039
3.16 -0.423875
3.17 -0.474834
3.18 -0.521734
3.19 -0.563172
3.2 -0.599485
3.21 -0.630173
3.22 -0.654607
3.23 -0.673545
3.24 -0.686145
3.25 -0.693146
3.26 -0.694848
3.27 -0.690873
3.28 -0.682404
3.29 -0.66922
3.3 -0.651906
3.31 -0.631063
3.32 -0.606379
3.33 -0.578783
3.34 -0.548187
3.35 -0.514745
3.36 -0.478842
3.37 -0.440033
3.38 -0.398758
3.39 -0.354827
3.4 -0.308008
3.41 -0.258584
3.42 -0.206029
3.43 -0.150638
3.44 -0.092409
3.45 -0.0310905
3.46 0.0327306
3.47 0.0991568
3.48 0.167687
3.49 0.237808
3.5 0.309169
3.51 0.380945
3.52 0.452433
3.53 0.522794
3.54 0.591353
3.55 0.656672
3.56 0.718403
3.57 0.775384
3.58 0.826499
3.59 0.871693
3.6 0.909097
3.61 0.939074
3.62 0.961028
3.63 0.973824
3.64 0.978568
3.65 0.974021
3.66 0.961035
3.67 0.940178
3.68 0.910729
3.69 0.874602
3.7 0.831672
3.71 0.782912
3.72 0.729567
3.73 0.671666
3.74 0.610878
3.75 0.54778
3.76 0.483191
3.77 0.417988
3.78 0.352846
3.79 0.288358
3.8 0.225043
3.81 0.163443
3.82 0.103625
3.83 0.0461086
3.84 -0.00918764
3.85 -0.062255
3.86 -0.112801
3.87 -0.161261
3.88 -0.207443
3.89 -0.251533
3.9 -0.293748
3.91 -0.333776
3.92 -0.372008
3.93 -0.408216
3.94 -0.442283
3.95 -0.474292
3.96 -0.503586
3.97 -0.530319
3.98 -0.554049
3.99 -0.574233
4 -0.590991
4.01 -0.603362
4.02 -0.611495
4.03 -0.615135
4.04 -0.613525
4.05 -0.607315
4.06 -0.595829
4.07 -0.579461
4.08 -0.558658
4.09 -0.533009
4.1 -0.503752
4.11 -0.471053
4.12 -0.435633
4.13 -0.398432
4.14 -0.36004
4.15 -0.321497
4.16 -0.283662
4.17 -0.247502
4.18 -0.213597
4.19 -0.183221
4.2 -0.156622
4.21 -0.134405
4.22 -0.117476
4.23 -0.105356
4.24 -0.0988838
4.25 -0.0975804
4.26 -0.101039
4.27 -0.109558
4.28 -0.121799
4.29 -0.137505
4.3 -0.155765
4.31 -0.175557
4.32 -0.196095
4.33 -0.2163
4.34 -0.235187
4.35 -0.251734
4.36 -0.265403
4.37 -0.274781
4.38 -0.279811
4.39 -0.279859
4.4 -0.274145
4.41 -0.263266
4.42 -0.2464
4.43 -0.224249
4.44 -0.197235
4.45 -0.165233
4.46 -0.129602
4.47 -0.0906389
4.48 -0.0493205
4.49 -0.00662035
4.5 0.0366704
4.51 0.0795653
4.52 0.121138
4.53 0.160504
4.54 0.1972
4.55 0.22995
4.56 0.258822
4.57 0.28322
4.58 0.302574
4.59 0.317403
4.6 0.326962
4.61 0.331945
4.62 0.332623
4.63 0.328895
4.64 0.321853
4.65 0.3116
4.66 0.298905
4.67 0.284468
4.68 0.268679
4.69 0.252339
4.7 0.235954
4.71 0.220053
4.72 0.204994
4.73 0.191379
4.74 0.179251
4.75 0.168905
4.76 0.160543
4.77 0.153957
4.78 0.149402
4.79 0.146518
4.8 0.145155
4.81 0.145216
4.82 0.146249
4.83 0.148087
4.84 0.15037
4.85 0.152798
4.86 0.155063
4.87 0.156929
4.88 0.158092
4.89 0.158344
4.9 0.157595
4.91 0.15545
4.92 0.15204
4.93 0.147162
4.94 0.140705
4.95 0.13281
4.96 0.123178
4.97 0.11203
4.98 0.0993153
4.99 0.084904
5 0.0690277
5.01 0.0514579
5.02 0.0323453
5.03 0.0117299
5.04 -0.0105924
5.05 -0.0343418
5.06 -0.0596755
5.07 -0.0864874
5.08 -0.114606
5.09 -0.144183
5.1 -0.174837
5.11 -0.206502
5.12 -0.238967
5.13 -0.27191
5.14 -0.305067
5.15 -0.338058
5.16 -0.370487
5.17 -0.401841
5.18 -0.43182
5.19 -0.459646
5.2 -0.485032
5.21 -0.507512
5.22 -0.526172
5.23 -0.541131
5.24 -0.551414
5.25 -0.556878
5.26 -0.55751
5.27 -0.552131
5.28 -0.541591
5.29 -0.52524
5.3 -0.503104
5.31 -0.475839
5.32 -0.442617
5.33 -0.404672
5.34 -0.362042
5.35 -0.314969
5.36 -0.264457
5.37 -0.210524
5.38 -0.154163
5.39 -0.0959423
5.4 -0.0363714
5.41 0.0237586
5.42 0.0838664
5.43 0.143357
5.44 0.201742
5.45 0.258267
5.46 0.312803
5.47 0.364716
5.48 0.413723
5.49 0.459846
5.5 0.502234
5.51 0.541403
5.52 0.576986
5.53 0.608827
5.54 0.637346
5.55 0.661962
5.56 0.683236
5.57 0.701137
5.58 0.715456
5.59 0.726751
5.6 0.734627
5.61 0.73944
5.62 0.74132
5.63 0.739897
5.64 0.735721
5.65 0.728471
5.66 0.718282
5.67 0.705408
5.68 0.689339
5.69 0.670685
5.7 0.649259
5.71 0.625118
5.72 0.598667
5.73 0.569644
5.74 0.538623
5.75 0.505751
5.76 0.471213
5.77 0.435533
5.78 0.398929
5.79 0.361896
5.8 0.324845
5.81 0.288277
5.82 0.252556
5.83 0.218283
5.84 0.185838
5.85 0.155499
5.86 0.128107
5.87 0.103493
5.88 0.0822487
5.89 0.0646042
5.9 0.0503447
5.91 0.0402478
5.92 0.0336477
5.93 0.0306859
5.94 0.0313709
5.95 0.0350323
5.96 0.0418336
5.97 0.0510343
5.98 0.0622321
5.99 0.0751005
6 0.0889054
6.01 0.103198
6.02 0.117382
6.03 0.130953
6.04 0.143197
6.05 0.153848
6.06 0.162247
6.07 0.168013
6.08 0.171073
6.09 0.170529
6.1 0.166809
6.11 0.159534
6.12 0.148542
6.13 0.134297
6.14 0.116343
6.15 0.0953534
6.16 0.0715079
6.17 0.0449133
6.18 0.0163046
6.19 -0.0141668
6.2 -0.0458866
6.21 -0.07837
6.22 -0.111176
6.23 -0.14379
6.24 -0.175696
6.25 -0.206462
6.26 -0.235803
6.27 -0.262994
6.28 -0.288112
6.29 -0.310703
6.3 -0.330522
6.31 -0.347754
6.32 -0.36184
6.33 -0.373248
6.34 -0.381944
6.35 -0.387899
6.36 -0.391665
6.37 -0.393175
6.38 -0.39296
6.39 -0.391371
6.4 -0.388654
6.41 -0.385355
6.42 -0.381818
6.43 -0.378463
6.44 -0.375627
6.45 -0.373823
6.46 -0.373186
6.47 -0.374118
6.48 -0.376854
6.49 -0.381367
6.5 -0.38813
6.51 -0.396825
6.52 -0.407532
6.53 -0.420248
6.54 -0.434568
6.55 -0.450504
6.56 -0.467583
6.57 -0.485485
6.58 -0.503869
6.59 -0.522272
6.6 -0.540224
6.61 -0.557297
6.62 -0.573119
6.63 -0.586975
6.64 -0.598796
6.65 -0.60796
6.66 -0.614163
6.67 -0.617427
6.68 -0.616875
6.69 -0.613011
6.7 -0.605487
6.71 -0.594155
6.72 -0.579508
6.73 -0.561087
6.74 -0.539556
6.75 -0.515087
6.76 -0.487738
6.77 -0.458231
6.78 -0.426645
6.79 -0.393552
6.8 -0.359389
6.81 -0.324472
6.82 -0.289316
6.83 -0.254304
6.84 -0.219814
6.85 -0.186112
6.86 -0.153724
6.87 -0.122666
6.88 -0.09328
6.89 -0.0657747
6.9 -0.0400573
6.91 -0.0165532
6.92 0.00502037
6.93 0.0245957
6.94 0.0420754
6.95 0.0578068
6.96 0.0716194
6.97 0.0838194
6.98 0.0945609
6.99 0.103819
7 0.111964
7.01 0.119012
7.02 0.125169
7.03 0.130632
7.04 0.135436
7.05 0.139829
7.06 0.1439
7.07 0.147786
7.08 0.151619
7.09 0.155535
7.1 0.159643
7.11 0.164082
7.12 0.169011
7.13 0.174496
7.14 0.180791
7.15 0.187948
7.16 0.196112
7.17 0.205559
7.18 0.216237
7.19 0.228467
7.2 0.242276
7.21 0.257681
7.22 0.275049
7.23 0.294103
7.24 0.315051
7.25 0.337841
7.26 0.362238
7.27 0.388438
7.28 0.415974
7.29 0.444728
7.3 0.474462
7.31 0.504766
7.32 0.535334
7.33 0.565738
7.34 0.595563
7.35 0.624259
7.36 0.651549
7.37 0.676723
7.38 0.699494
7.39 0.719549
7.4 0.736034
7.41 0.749194
7.42 0.758327
7.43 0.763328
7.44 0.764419
7.45 0.760687
7.46 0.753016
7.47 0.741133
7.48 0.725134
7.49 0.705707
7.5 0.682576
7.51 0.656641
7.52 0.628222
7.53 0.597655
7.54 0.565703
7.55 0.532717
7.56 0.499319
7.57 0.466001
7.58 0.433317
7.59 0.401598
7.6 0.371387
7.61 0.342963
7.62 0.316455
7.63 0.292472
7.64 0.270702
7.65 0.25143
7.66 0.234657
7.67 0.220054
7.68 0.207887
7.69 0.197594
7.7 0.189044
7.71 0.182048
7.72 0.176136
7.73 0.171153
7.74 0.166693
7.75 0.162473
7.76 0.158216
7.77 0.15369
7.78 0.148634
7.79 0.142906
7.8 0.136426
7.81 0.128971
7.82 0.120674
7.83 0.111454
7.84 0.101381
7.85 0.0906179
7.86 0.0791682
7.87 0.0672911
7.88 0.055118
7.89 0.042823
7.9 0.0305834
7.91 0.0185996
7.92 0.00699421
7.93 -0.00409621
7.94 -0.0145004
7.95 -0.024238
7.96 -0.0331579
7.97 -0.0413084
7.98 -0.048737
7.99 -0.0553943
8 -0.0614871
8.01 -0.0670666
8.02 -0.0722906
8.03 -0.0773334
8.04 -0.0823614
8.05 -0.0875537
8.06 -0.0931082
8.07 -0.0992262
8.08 -0.106004
8.09 -0.113747
8.1 -0.122462
8.11 -0.132295
8.12 -0.143436
8.13 -0.155769
8.14 -0.169521
8.15 -0.184564
8.16 -0.200845
8.17 -0.218465
8.18 -0.237132
8.19 -0.256857
8.2 -0.27745
8.21 -0.298696
8.22 -0.320506
8.23 -0.342586
8.24 -0.364745
8.25 -0.386749
8.26 -0.408401
8.27 -0.429362
8.28 -0.449509
8.29 -0.468577
8.3 -0.486262
8.31 -0.502547
8.32 -0.516981
8.33 -0.529584
8.34 -0.540216
8.35 -0.548494
8.36 -0.554666
8.37 -0.558349
8.38 -0.559634
8.39 -0.55863
8.4 -0.554933
8.41 -0.549027
8.42 -0.540726
8.43 -0.530136
8.44 -0.517576
8.45 -0.50279
8.46 -0.486289
8.47 -0.468109
8.48 -0.448359
8.49 -0.427392
8.5 -0.405192
8.51 -0.382082
8.52 -0.358211
8.53 -0.333677
8.54 -0.308706
8.55 -0.283366
8.56 -0.257785
8.57 -0.232048
8.58 -0.206191
8.59 -0.180264
8.6 -0.154267
8.61 -0.128189
8.62 -0.102014
8.63 -0.0756709
8.64 -0.0491421
8.65 -0.0223596
8.66 0.00473573
8.67 0.0321463
8.68 0.0599602
8.69 0.0881292
8.7 0.116647
8.71 0.14549
8.72 0.174542
8.73 0.203714
8.74 0.23285
8.75 0.261786
8.76 0.290259
8.77 0.318122
8.78 0.345032
8.79 0.370757
8.8 0.395139
8.81 0.417597
8.82 0.438222
8.83 0.456596
8.84 0.47248
8.85 0.485984
8.86 0.496502
8.87 0.50441
8.88 0.509567
8.89 0.511844
8.9 0.511706
8.91 0.508932
8.92 0.504015
8.93 0.497221
8.94 0.488673
8.95 0.478961
8.96 0.468318
8.97 0.457185
8.98 0.445945
8.99 0.435006
9 0.424654
9.01 0.415267
9.02 0.407115
9.03 0.400271
9.04 0.395172
9.05 0.391613
9.06 0.389704
9.07 0.389456
9.08 0.390547
9.09 0.39299
9.1 0.396372
9.11 0.400412
9.12 0.404799
9.13 0.409134
9.14 0.412996
9.15 0.41603
9.16 0.417926
9.17 0.418104
9.18 0.416548
9.19 0.412787
9.2 0.406657
9.21 0.398244
9.22 0.386972
9.23 0.37334
9.24 0.357206
9.25 0.338627
9.26 0.318049
9.27 0.295366
9.28 0.271127
9.29 0.245576
9.3 0.218952
9.31 0.191703
9.32 0.164074
9.33 0.136392
9.34 0.108908
9.35 0.0819022
9.36 0.0554695
9.37 0.0298106
9.38 0.00496728
9.39 -0.0191098
9.4 -0.0423122
9.41 -0.0648799
9.42 -0.0868816
9.43 -0.108483
9.44 -0.129896
9.45 -0.151315
9.46 -0.172932
9.47 -0.194939
9.48 -0.217537
9.49 -0.240769
9.5 -0.264831
9.51 -0.28967
9.52 -0.315254
9.53 -0.341577
9.54 -0.368385
9.55 -0.395523
9.56 -0.422703
9.57 -0.449633
9.58 -0.475859
9.59 -0.50113
9.6 -0.524939
9.61 -0.546868
9.62 -0.566743
9.63 -0.583716
9.64 -0.597926
9.65 -0.608912
9.66 -0.616268
9.67 -0.620286
9.68 -0.620285
9.69 -0.616719
9.7 -0.609621
9.71 -0.598779
9.72 -0.584933
9.73 -0.567951
9.74 -0.548394
9.75 -0.526739
9.76 -0.503126
9.77 -0.478308
9.78 -0.452613
9.79 -0.42653
9.8 -0.400491
9.81 -0.37499
9.82 -0.350296
9.83 -0.326794
9.84 -0.304813
9.85 -0.284374
9.86 -0.265934
9.87 -0.249318
9.88 -0.234606
9.89 -0.221935
9.9 -0.210956
9.91 -0.201803
9.92 -0.194171
9.93 -0.187852
9.94 -0.18282
9.95 -0.178682
9.96 -0.17535
9.97 -0.172607
9.98 -0.170254
9.99 -0.168205
10 -0.166296
10.01 -0.164456
10.02 -0.162631
10.03 -0.160794
10.04 -0.158946
10.05 -0.157113
10.06 -0.155337
10.07 -0.15368
10.08 -0.152181
10.09 -0.150931
10.1 -0.149955
10.11 -0.149284
10.12 -0.148975
10.13 -0.148969
10.14 -0.149273
10.15 -0.14981
10.16 -0.150487
10.17 -0.1512
10.18 -0.151814
10.19 -0.152162
10.2 -0.15207
10.21 -0.151425
10.22 -0.149911
10.23 -0.147504
10.24 -0.143996
10.25 -0.139189
10.26 -0.133141
10.27 -0.125556
10.28 -0.116568
10.29 -0.106169
10.3 -0.0942491
10.31 -0.0811009
10.32 -0.0666721
10.33 -0.0511998
10.34 -0.0348997
10.35 -0.0178676
10.36 -0.000436916
10.37 0.0172009
10.38 0.0347994
10.39 0.0521543
10.4 0.0689594
10.41 0.085117
10.42 0.100406
10.43 0.114645
10.44 0.127856
10.45 0.139771
10.46 0.150525
10.47 0.160095
10.48 0.168419
10.49 0.175738
10.5 0.182007
10.51 0.187439
10.52 0.192194
10.53 0.196345
10.54 0.20014
10.55 0.203696
10.56 0.207173
10.57 0.210701
10.58 0.214423
10.59 0.218394
10.6 0.222702
10.61 0.227394
10.62 0.232436
10.63 0.237876
10.64 0.243612
10.65 0.24959
10.66 0.255734
10.67 0.261924
10.68 0.268043
10.69 0.273978
10.7 0.279618
10.71 0.284794
10.72 0.289474
10.73 0.293495
10.74 0.29681
10.75 0.299413
10.76 0.301128
10.77 0.302094
10.78 0.302244
10.79 0.301607
10.8 0.300311
10.81 0.298304
10.82 0.295779
10.83 0.292802
10.84 0.28946
10.85 0.285901
10.86 0.282211
10.87 0.278513
10.88 0.274904
10.89 0.271498
10.9 0.268343
10.91 0.265548
10.92 0.263142
10.93 0.26114
10.94 0.259634
10.95 0.258544
10.96 0.257902
10.97 0.257669
10.98 0.257768
10.99 0.258198
11 0.258832
11.01 0.259606
11.02 0.260425
11.03 0.261194
11.04 0.261782
11.05 0.262103
11.06 0.262041
11.07 0.261434
11.08 0.260248
11.09 0.258271
11.1 0.255454
11.11 0.251724
11.12 0.24683
11.13 0.24087
11.14 0.233629
11.15 0.225074
11.16 0.215269
11.17 0.203904
11.18 0.191243
11.19 0.177167
11.2 0.161676
11.21 0.144971
11.22 0.12691
11.23 0.107784
11.24 0.0876773
11.25 0.0666832
11.26 0.0450845
11.27 0.0230023
11.28 0.000699083
11.29 -0.0216033
11.3 -0.0436339
11.31 -0.0652005
11.32 -0.0859835
11.33 -0.105775
11.34 -0.124438
11.35 -0.141511
11.36 -0.157094
11.37 -0.170877
11.38 -0.182729
11.39 -0.192771
11.4 -0.200596
11.41 -0.206548
11.42 -0.210563
11.43 -0.212624
11.44 -0.213091
11.45 -0.211875
11.46 -0.209354
11.47 -0.205738
11.48 -0.201172
11.49 -0.196038
11.5 -0.190533
11.51 -0.184946
11.52 -0.179513
11.53 -0.174532
11.54 -0.170134
11.55 -0.166571
11.56 -0.163994
11.57 -0.162415
11.58 -0.162134
11.59 -0.162972
11.6 -0.165017
11.61 -0.168279
11.62 -0.172555
11.63 -0.17792
11.64 -0.184123
11.65 -0.191048
11.66 -0.198604
11.67 -0.206561
11.68 -0.214816
11.69 -0.223204
11.7 -0.231597
11.71 -0.239869
11.72 -0.247949
11.73 -0.255743
11.74 -0.263208
11.75 -0.270351
11.76 -0.277099
11.77 -0.283538
11.78 -0.289669
11.79 -0.295528
11.8 -0.301188
11.81 -0.306665
11.82 -0.312024
11.83 -0.317292
11.84 -0.322478
11.85 -0.32759
11.86 -0.332591
11.87 -0.337442
11.88 -0.342077
11.89 -0.346359
11.9 -0.350231
11.91 -0.353495
11.92 -0.356025
11.93 -0.35773
11.94 -0.358259
11.95 -0.357667
11.96 -0.355694
11.97 -0.352198
11.98 -0.347241
11.99 -0.340452
12 -0.332073
12.01 -0.322021
12.02 -0.310241
12.03 -0.297029
12.04 -0.282284
12.05 -0.266333
12.06 -0.249369
12.07 -0.231531
12.08 -0.213186
12.09 -0.194551
12.1 -0.175925
12.11 -0.157561
12.12 -0.139814
12.13 -0.12282
12.14 -0.106889
12.15 -0.0922078
12.16 -0.0787954
12.17 -0.0670392
12.18 -0.0567245
12.19 -0.047968
12.2 -0.0408004
12.21 -0.0349595
12.22 -0.0305441
12.23 -0.0272237
12.24 -0.0248327
12.25 -0.0232265
12.26 -0.022077
12.27 -0.021195
12.28 -0.0203195
12.29 -0.0192347
12.3 -0.017662
12.31 -0.0154941
12.32 -0.0124879
12.33 -0.00852504
12.34 -0.00359834
12.35 0.0025771
12.36 0.00980567
12.37 0.0181774
12.38 0.0276826
12.39 0.0381344
12.4 0.0496076
12.41 0.0618563
12.42 0.0747877
12.43 0.0883138
12.44 0.102229
12.45 0.11645
12.46 0.130821
12.47 0.145229
12.48 0.159556
12.49 0.173725
12.5 0.187628
12.51 0.201204
12.52 0.214419
12.53 0.227138
12.54 0.239399
12.55 0.251104
12.56 0.262192
12.57 0.272673
12.58 0.282346
12.59 0.291251
12.6 0.299253
12.61 0.306177
12.62 0.312043
12.63 0.316521
12.64 0.319608
12.65 0.321167
12.66 0.320842
12.67 0.318773
12.68 0.314572
12.69 0.308238
12.7 0.299806
12.71 0.288825
12.72 0.2757
12.73 0.260209
12.74 0.242428
12.75 0.222674
12.76 0.200721
12.77 0.177121
12.78 0.151997
12.79 0.12558
12.8 0.0983125
12.81 0.0704221
12.82 0.0423308
12.83 0.0143773
12.84 -0.0130371
12.85 -0.0396719
12.86 -0.0650793
12.87 -0.0890719
12.88 -0.111493
12.89 -0.13189
12.9 -0.150475
12.91 -0.166972
12.92 -0.181429
12.93 -0.194086
12.94 -0.204697
12.95 -0.213793
12.96 -0.221455
12.97 -0.227911
12.98 -0.233551
12.99 -0.238557
13 -0.243302
13.01 -0.24805
13.02 -0.253084
13.03 -0.258578
13.04 -0.2648
13.05 -0.271816
13.06 -0.279672
13.07 -0.288495
13.08 -0.29808
13.09 -0.308395
13.1 -0.319226
13.11 -0.330319
13.12 -0.341394
13.13 -0.352144
