# xPDFsuite Configuration #
[PDF]
wavelength = 0.1
dataformat = Qnm
inputfile = A3-Li-TiO2-12h-p2_030.chi
backgroundfile = A2_Bkg-Li_d22-00000.chi
mode = xray
bgscale = 0.91
composition = TiO2
outputtype = gr
qmaxinst = 21.4
qmin = 0.1
qmax = 21.4
rmax = 100.0
rmin = 0.0
rstep = 0.01
rpoly = 0.9

[Misc]
inputdir = D:/APS_March_2019/Run3/Processed-Data/A3-Li-TiO2-12h-p2/chi-files
savedir = D:/APS_March_2019/Run3/Processed-Data/A3-Li-TiO2-12h-p2
backgroundfilefull = D:/APS_March_2019/Calib-Bkg/A2_Bkg-Li_d22-00000.chi

#### start data
#S 1
#L r($\AA$)  G($\AA^{-2}$)
0 0
0.01 -0.000453999
0.02 -0.000888236
0.03 -0.0012817
0.04 -0.00161467
0.05 -0.0018799
0.06 -0.00205122
0.07 -0.00213356
0.08 -0.00212008
0.09 -0.0020037
0.1 -0.00180249
0.11 -0.00151279
0.12 -0.0011554
0.13 -0.000746852
0.14 -0.000301562
0.15 0.000154553
0.16 0.000598748
0.17 0.00100685
0.18 0.0013589
0.19 0.00161468
0.2 0.00176706
0.21 0.00178099
0.22 0.0016304
0.23 0.00131136
0.24 0.000765107
0.25 5.43849e-06
0.26 -0.000998046
0.27 -0.00227939
0.28 -0.00381748
0.29 -0.00566829
0.3 -0.00780524
0.31 -0.0102276
0.32 -0.0129594
0.33 -0.0159368
0.34 -0.0191587
0.35 -0.022561
0.36 -0.0260712
0.37 -0.0296039
0.38 -0.033045
0.39 -0.036239
0.4 -0.0390106
0.41 -0.0412206
0.42 -0.0424852
0.43 -0.042711
0.44 -0.0415469
0.45 -0.0386089
0.46 -0.033817
0.47 -0.0264785
0.48 -0.0165831
0.49 -0.00379875
0.5 0.0124733
0.51 0.0319708
0.52 0.0553804
0.53 0.0825406
0.54 0.113348
0.55 0.148324
0.56 0.18665
0.57 0.22845
0.58 0.273236
0.59 0.32028
0.6 0.369307
0.61 0.419215
0.62 0.469206
0.63 0.518228
0.64 0.565393
0.65 0.60904
0.66 0.648461
0.67 0.682344
0.68 0.708922
0.69 0.728093
0.7 0.737515
0.71 0.737097
0.72 0.726307
0.73 0.703009
0.74 0.668768
0.75 0.622012
0.76 0.563358
0.77 0.49404
0.78 0.41271
0.79 0.3224
0.8 0.223442
0.81 0.117302
0.82 0.00630096
0.83 -0.108316
0.84 -0.223992
0.85 -0.338675
0.86 -0.449912
0.87 -0.556092
0.88 -0.654018
0.89 -0.742559
0.9 -0.820059
0.91 -0.883464
0.92 -0.933689
0.93 -0.967969
0.94 -0.986677
0.95 -0.990623
0.96 -0.97752
0.97 -0.950971
0.98 -0.91069
0.99 -0.858374
1 -0.796921
1.01 -0.727031
1.02 -0.652465
1.03 -0.575472
1.04 -0.498847
1.05 -0.425081
1.06 -0.357661
1.07 -0.298324
1.08 -0.249344
1.09 -0.213953
1.1 -0.191724
1.11 -0.185834
1.12 -0.195802
1.13 -0.22113
1.14 -0.263892
1.15 -0.320419
1.16 -0.390927
1.17 -0.473216
1.18 -0.564207
1.19 -0.662711
1.2 -0.764627
1.21 -0.867256
1.22 -0.967311
1.23 -1.06222
1.24 -1.14764
1.25 -1.22208
1.26 -1.28286
1.27 -1.32653
1.28 -1.35389
1.29 -1.36121
1.3 -1.34966
1.31 -1.31976
1.32 -1.26963
1.33 -1.20358
1.34 -1.1214
1.35 -1.02601
1.36 -0.920816
1.37 -0.807345
1.38 -0.690187
1.39 -0.572347
1.4 -0.457402
1.41 -0.348104
1.42 -0.24917
1.43 -0.161893
1.44 -0.0892442
1.45 -0.0344065
1.46 0.003481
1.47 0.0205698
1.48 0.018612
1.49 -0.00200142
1.5 -0.0426288
1.51 -0.0989381
1.52 -0.171027
1.53 -0.255628
1.54 -0.349457
1.55 -0.450692
1.56 -0.554971
1.57 -0.659283
1.58 -0.760211
1.59 -0.855216
1.6 -0.939686
1.61 -1.01275
1.62 -1.07148
1.63 -1.11323
1.64 -1.13883
1.65 -1.14457
1.66 -1.13247
1.67 -1.10258
1.68 -1.0538
1.69 -0.989929
1.7 -0.910396
1.71 -0.81815
1.72 -0.715688
1.73 -0.603901
1.74 -0.486542
1.75 -0.365324
1.76 -0.242625
1.77 -0.120459
1.78 -0.00111618
1.79 0.11435
1.8 0.224356
1.81 0.327694
1.82 0.424528
1.83 0.513298
1.84 0.595024
1.85 0.669737
1.86 0.737307
1.87 0.79927
1.88 0.855512
1.89 0.907252
1.9 0.955281
1.91 0.999768
1.92 1.04174
1.93 1.0812
1.94 1.11834
1.95 1.15322
1.96 1.18493
1.97 1.21345
1.98 1.23763
1.99 1.25632
2 1.26906
2.01 1.27327
2.02 1.26894
2.03 1.25448
2.04 1.22797
2.05 1.19006
2.06 1.13809
2.07 1.073
2.08 0.99484
2.09 0.902236
2.1 0.797978
2.11 0.681584
2.12 0.555119
2.13 0.420838
2.14 0.279703
2.15 0.135149
2.16 -0.0106192
2.17 -0.154821
2.18 -0.295155
2.19 -0.427763
2.2 -0.551411
2.21 -0.663293
2.22 -0.760643
2.23 -0.843713
2.24 -0.90867
2.25 -0.956821
2.26 -0.987807
2.27 -1.00003
2.28 -0.996886
2.29 -0.97744
2.3 -0.944427
2.31 -0.900339
2.32 -0.845974
2.33 -0.78546
2.34 -0.720829
2.35 -0.654973
2.36 -0.590439
2.37 -0.530497
2.38 -0.476624
2.39 -0.431311
2.4 -0.396644
2.41 -0.372575
2.42 -0.36196
2.43 -0.363431
2.44 -0.377164
2.45 -0.40364
2.46 -0.440179
2.47 -0.486828
2.48 -0.54105
2.49 -0.600783
2.5 -0.664415
2.51 -0.729182
2.52 -0.792869
2.53 -0.853237
2.54 -0.908669
2.55 -0.95592
2.56 -0.994873
2.57 -1.02343
2.58 -1.04035
2.59 -1.04633
2.6 -1.03896
2.61 -1.02023
2.62 -0.990085
2.63 -0.94847
2.64 -0.897797
2.65 -0.837887
2.66 -0.770957
2.67 -0.698433
2.68 -0.621203
2.69 -0.541319
2.7 -0.459811
2.71 -0.37797
2.72 -0.296758
2.73 -0.217249
2.74 -0.139742
2.75 -0.064835
2.76 0.00727741
2.77 0.076885
2.78 0.143699
2.79 0.208467
2.8 0.271468
2.81 0.333103
2.82 0.393974
2.83 0.454418
2.84 0.514816
2.85 0.575369
2.86 0.636156
2.87 0.697028
2.88 0.757649
2.89 0.817511
2.9 0.875996
2.91 0.931851
2.92 0.984518
2.93 1.03245
2.94 1.07443
2.95 1.1099
2.96 1.13602
2.97 1.15326
2.98 1.1599
2.99 1.1546
3 1.13816
3.01 1.10806
3.02 1.06588
3.03 1.0115
3.04 0.944243
3.05 0.866564
3.06 0.777939
3.07 0.680474
3.08 0.575806
3.09 0.464677
3.1 0.349779
3.11 0.232524
3.12 0.114876
3.13 -0.0014979
3.14 -0.114288
3.15 -0.222576
3.16 -0.324508
3.17 -0.418626
3.18 -0.504826
3.19 -0.58068
3.2 -0.647072
3.21 -0.703301
3.22 -0.748465
3.23 -0.784081
3.24 -0.808869
3.25 -0.824224
3.26 -0.830744
3.27 -0.827869
3.28 -0.817578
3.29 -0.799476
3.3 -0.774465
3.31 -0.743454
3.32 -0.705743
3.33 -0.662793
3.34 -0.614272
3.35 -0.560296
3.36 -0.501485
3.37 -0.436882
3.38 -0.367365
3.39 -0.292636
3.4 -0.212412
3.41 -0.127458
3.42 -0.0371671
3.43 0.0575698
3.44 0.15632
3.45 0.258836
3.46 0.363803
3.47 0.470496
3.48 0.577615
3.49 0.683899
3.5 0.787496
3.51 0.887326
3.52 0.981259
3.53 1.06761
3.54 1.1456
3.55 1.21162
3.56 1.26625
3.57 1.30738
3.58 1.33333
3.59 1.34516
3.6 1.33975
3.61 1.31908
3.62 1.28299
3.63 1.23058
3.64 1.16487
3.65 1.0851
3.66 0.993767
3.67 0.89281
3.68 0.782839
3.69 0.667184
3.7 0.547267
3.71 0.425334
3.72 0.303381
3.73 0.183663
3.74 0.0674812
3.75 -0.0433112
3.76 -0.147209
3.77 -0.244019
3.78 -0.331569
3.79 -0.410708
3.8 -0.480998
3.81 -0.541909
3.82 -0.59506
3.83 -0.639895
3.84 -0.677987
3.85 -0.710349
3.86 -0.737358
3.87 -0.760845
3.88 -0.78143
3.89 -0.800225
3.9 -0.818141
3.91 -0.835822
3.92 -0.853817
3.93 -0.872476
3.94 -0.891925
3.95 -0.912009
3.96 -0.93252
3.97 -0.952943
3.98 -0.972677
3.99 -0.990908
4 -1.00709
4.01 -1.01998
4.02 -1.02914
4.03 -1.03388
4.04 -1.03301
4.05 -1.02691
4.06 -1.01453
4.07 -0.996151
4.08 -0.972221
4.09 -0.942154
4.1 -0.907516
4.11 -0.86857
4.12 -0.826322
4.13 -0.782059
4.14 -0.736726
4.15 -0.691694
4.16 -0.648187
4.17 -0.607532
4.18 -0.570397
4.19 -0.538468
4.2 -0.511862
4.21 -0.491176
4.22 -0.477309
4.23 -0.469328
4.24 -0.467834
4.25 -0.471815
4.26 -0.480337
4.27 -0.492953
4.28 -0.50784
4.29 -0.523848
4.3 -0.539412
4.31 -0.553179
4.32 -0.562927
4.33 -0.567926
4.34 -0.566372
4.35 -0.556794
4.36 -0.539138
4.37 -0.511005
4.38 -0.47332
4.39 -0.425561
4.4 -0.367022
4.41 -0.299515
4.42 -0.222386
4.43 -0.13747
4.44 -0.0460756
4.45 0.0510867
4.46 0.151614
4.47 0.254164
4.48 0.356849
4.49 0.458048
4.5 0.555449
4.51 0.648138
4.52 0.734148
4.53 0.812033
4.54 0.881625
4.55 0.940292
4.56 0.98906
4.57 1.02707
4.58 1.05352
4.59 1.07
4.6 1.07525
4.61 1.07102
4.62 1.05804
4.63 1.03627
4.64 1.00798
4.65 0.973374
4.66 0.93396
4.67 0.891037
4.68 0.845233
4.69 0.798033
4.7 0.75025
4.71 0.702784
4.72 0.656295
4.73 0.611729
4.74 0.569282
4.75 0.529503
4.76 0.492838
4.77 0.459106
4.78 0.428959
4.79 0.402018
4.8 0.378314
4.81 0.358113
4.82 0.340831
4.83 0.326779
4.84 0.315592
4.85 0.307019
4.86 0.301306
4.87 0.297833
4.88 0.296688
4.89 0.297619
4.9 0.300244
4.91 0.304635
4.92 0.310201
4.93 0.316718
4.94 0.323812
4.95 0.331022
4.96 0.33782
4.97 0.34374
4.98 0.348204
4.99 0.350436
5 0.350159
5.01 0.346308
5.02 0.338599
5.03 0.326605
5.04 0.309174
5.05 0.28677
5.06 0.258451
5.07 0.224279
5.08 0.184677
5.09 0.138712
5.1 0.0877991
5.11 0.0319187
5.12 -0.028316
5.13 -0.0917193
5.14 -0.157827
5.15 -0.225197
5.16 -0.292762
5.17 -0.359204
5.18 -0.423487
5.19 -0.483854
5.2 -0.539479
5.21 -0.5893
5.22 -0.631435
5.23 -0.666169
5.24 -0.691701
5.25 -0.707977
5.26 -0.715233
5.27 -0.711691
5.28 -0.699286
5.29 -0.677392
5.3 -0.646615
5.31 -0.608496
5.32 -0.5626
5.33 -0.511215
5.34 -0.455122
5.35 -0.395433
5.36 -0.333784
5.37 -0.27128
5.38 -0.209277
5.39 -0.148924
5.4 -0.0916087
5.41 -0.0378204
5.42 0.0110372
5.43 0.0546371
5.44 0.0927469
5.45 0.124113
5.46 0.149701
5.47 0.168857
5.48 0.181897
5.49 0.189656
5.5 0.191506
5.51 0.188981
5.52 0.182271
5.53 0.171893
5.54 0.158839
5.55 0.143299
5.56 0.126167
5.57 0.107895
5.58 0.0888822
5.59 0.0695851
5.6 0.0502788
5.61 0.0311803
5.62 0.0124134
5.63 -0.00589779
5.64 -0.0238152
5.65 -0.0413274
5.66 -0.0585158
5.67 -0.0754769
5.68 -0.0922515
5.69 -0.108927
5.7 -0.125515
5.71 -0.141991
5.72 -0.158301
5.73 -0.174258
5.74 -0.189723
5.75 -0.204429
5.76 -0.217992
5.77 -0.230237
5.78 -0.240522
5.79 -0.248646
5.8 -0.254249
5.81 -0.256582
5.82 -0.255798
5.83 -0.251146
5.84 -0.242577
5.85 -0.230178
5.86 -0.213141
5.87 -0.192266
5.88 -0.16725
5.89 -0.138315
5.9 -0.106121
5.91 -0.0704573
5.92 -0.0323346
5.93 0.00788319
5.94 0.0496749
5.95 0.0922717
5.96 0.135099
5.97 0.177495
5.98 0.218858
5.99 0.258423
6 0.29593
6.01 0.330559
6.02 0.362079
6.03 0.390313
6.04 0.414413
6.05 0.434884
6.06 0.451198
6.07 0.463403
6.08 0.471915
6.09 0.476079
6.1 0.476802
6.11 0.474001
6.12 0.467809
6.13 0.458859
6.14 0.446956
6.15 0.432761
6.16 0.416488
6.17 0.398255
6.18 0.378581
6.19 0.357521
6.2 0.335434
6.21 0.312564
6.22 0.289046
6.23 0.265186
6.24 0.241154
6.25 0.217166
6.26 0.193401
6.27 0.170145
6.28 0.147507
6.29 0.12575
6.3 0.105106
6.31 0.0856373
6.32 0.0677875
6.33 0.0514964
6.34 0.0369798
6.35 0.0244981
6.36 0.0138693
6.37 0.00544473
6.38 -0.000996018
6.39 -0.00553308
6.4 -0.00805442
6.41 -0.00903228
6.42 -0.00850765
6.43 -0.00685088
6.44 -0.00444452
6.45 -0.0015883
6.46 0.00124644
6.47 0.00362741
6.48 0.00510692
6.49 0.00539672
6.5 0.00381049
6.51 0.000310832
6.52 -0.00549154
6.53 -0.0139403
6.54 -0.0248217
6.55 -0.0385803
6.56 -0.0548154
6.57 -0.0733665
6.58 -0.0941732
6.59 -0.116551
6.6 -0.140226
6.61 -0.164563
6.62 -0.188976
6.63 -0.212745
6.64 -0.235344
6.65 -0.255969
6.66 -0.274001
6.67 -0.289156
6.68 -0.300232
6.69 -0.307521
6.7 -0.310413
6.71 -0.30854
6.72 -0.302392
6.73 -0.291265
6.74 -0.275984
6.75 -0.256766
6.76 -0.233732
6.77 -0.207918
6.78 -0.179582
6.79 -0.149625
6.8 -0.118788
6.81 -0.0877962
6.82 -0.0573914
6.83 -0.0283923
6.84 -0.00143959
6.85 0.0230989
6.86 0.0441252
6.87 0.0618851
6.88 0.0757937
6.89 0.0856109
6.9 0.0917498
6.91 0.0936096
6.92 0.0919906
6.93 0.0870447
6.94 0.078947
6.95 0.068537
6.96 0.0559952
6.97 0.04206
6.98 0.0272659
6.99 0.0120987
7 -0.00290365
7.01 -0.0172364
7.02 -0.03052
7.03 -0.0425159
7.04 -0.0526726
7.05 -0.0611257
7.06 -0.0675835
7.07 -0.0719916
7.08 -0.07457
7.09 -0.0750257
7.1 -0.0737854
7.11 -0.070868
7.12 -0.0663173
7.13 -0.0604508
7.14 -0.0531549
7.15 -0.0446573
7.16 -0.0349836
7.17 -0.0239831
7.18 -0.0117893
7.19 0.00189138
7.2 0.0171242
7.21 0.0340074
7.22 0.0530754
7.23 0.0741842
7.24 0.0977973
7.25 0.124095
7.26 0.152976
7.27 0.185114
7.28 0.220003
7.29 0.257814
7.3 0.298523
7.31 0.341579
7.32 0.387027
7.33 0.43414
7.34 0.48244
7.35 0.531359
7.36 0.580164
7.37 0.628032
7.38 0.674252
7.39 0.718146
7.4 0.758477
7.41 0.795112
7.42 0.826902
7.43 0.853385
7.44 0.874581
7.45 0.888943
7.46 0.897489
7.47 0.899607
7.48 0.895242
7.49 0.885316
7.5 0.869203
7.51 0.84826
7.52 0.822904
7.53 0.79357
7.54 0.761516
7.55 0.727203
7.56 0.691681
7.57 0.655746
7.58 0.620218
7.59 0.585713
7.6 0.553012
7.61 0.522552
7.62 0.494525
7.63 0.469679
7.64 0.447555
7.65 0.428377
7.66 0.411961
7.67 0.397732
7.68 0.38562
7.69 0.374781
7.7 0.364697
7.71 0.354708
7.72 0.344177
7.73 0.332268
7.74 0.318499
7.75 0.302319
7.76 0.282894
7.77 0.260319
7.78 0.233844
7.79 0.203537
7.8 0.169568
7.81 0.131408
7.82 0.0899702
7.83 0.0452331
7.84 -0.00230658
7.85 -0.0518999
7.86 -0.10327
7.87 -0.155487
7.88 -0.207951
7.89 -0.259951
7.9 -0.310929
7.91 -0.360012
7.92 -0.406879
7.93 -0.45103
7.94 -0.491767
7.95 -0.529287
7.96 -0.562897
7.97 -0.5928
7.98 -0.619137
7.99 -0.641467
8 -0.660612
8.01 -0.676447
8.02 -0.689383
8.03 -0.699991
8.04 -0.708211
8.05 -0.714845
8.06 -0.720114
8.07 -0.724355
8.08 -0.72797
8.09 -0.731143
8.1 -0.734139
8.11 -0.737091
8.12 -0.740084
8.13 -0.743129
8.14 -0.74618
8.15 -0.749133
8.16 -0.751844
8.17 -0.754058
8.18 -0.755635
8.19 -0.756228
8.2 -0.755613
8.21 -0.75364
8.22 -0.749747
8.23 -0.744045
8.24 -0.736143
8.25 -0.725841
8.26 -0.713262
8.27 -0.697843
8.28 -0.679955
8.29 -0.659449
8.3 -0.636185
8.31 -0.61056
8.32 -0.582271
8.33 -0.551709
8.34 -0.51901
8.35 -0.484087
8.36 -0.447426
8.37 -0.408971
8.38 -0.369008
8.39 -0.327795
8.4 -0.285327
8.41 -0.242
8.42 -0.197913
8.43 -0.153278
8.44 -0.108327
8.45 -0.0632338
8.46 -0.0182242
8.47 0.0264857
8.48 0.0706475
8.49 0.114118
8.5 0.156517
8.51 0.197745
8.52 0.237561
8.53 0.275577
8.54 0.31184
8.55 0.34587
8.56 0.377641
8.57 0.407093
8.58 0.433704
8.59 0.457839
8.6 0.479136
8.61 0.497639
8.62 0.513613
8.63 0.526585
8.64 0.537188
8.65 0.545347
8.66 0.551176
8.67 0.555121
8.68 0.557081
8.69 0.557553
8.7 0.55672
8.71 0.554729
8.72 0.551944
8.73 0.548457
8.74 0.544502
8.75 0.540218
8.76 0.53567
8.77 0.530954
8.78 0.526059
8.79 0.520966
8.8 0.51563
8.81 0.509889
8.82 0.503697
8.83 0.496869
8.84 0.489245
8.85 0.480781
8.86 0.471167
8.87 0.460476
8.88 0.448591
8.89 0.435413
8.9 0.42113
8.91 0.405654
8.92 0.389247
8.93 0.372102
8.94 0.354411
8.95 0.336537
8.96 0.318816
8.97 0.301613
8.98 0.285253
8.99 0.270335
9 0.256978
9.01 0.245708
9.02 0.236834
9.03 0.230355
9.04 0.226981
9.05 0.226315
9.06 0.228568
9.07 0.233814
9.08 0.241557
9.09 0.25197
9.1 0.264427
9.11 0.278579
9.12 0.294105
9.13 0.310343
9.14 0.326833
9.15 0.343016
9.16 0.358408
9.17 0.372301
9.18 0.384489
9.19 0.394349
9.2 0.401576
9.21 0.406169
9.22 0.40736
9.23 0.405668
9.24 0.400856
9.25 0.392935
9.26 0.382424
9.27 0.369133
9.28 0.353737
9.29 0.336521
9.3 0.31775
9.31 0.298002
9.32 0.277543
9.33 0.25679
9.34 0.236046
9.35 0.215598
9.36 0.19558
9.37 0.176156
9.38 0.157331
9.39 0.13901
9.4 0.121134
9.41 0.10342
9.42 0.0856114
9.43 0.067366
9.44 0.0484044
9.45 0.0281588
9.46 0.00645516
9.47 -0.0171124
9.48 -0.0429996
9.49 -0.0711397
9.5 -0.102094
9.51 -0.135663
9.52 -0.171813
9.53 -0.210736
9.54 -0.251809
9.55 -0.294986
9.56 -0.339731
9.57 -0.385489
9.58 -0.431788
9.59 -0.477933
9.6 -0.523242
9.61 -0.567017
9.62 -0.608806
9.63 -0.647472
9.64 -0.682949
9.65 -0.71453
9.66 -0.741567
9.67 -0.76431
9.68 -0.781772
9.69 -0.794468
9.7 -0.802374
9.71 -0.805135
9.72 -0.803716
9.73 -0.797876
9.74 -0.788348
9.75 -0.775756
9.76 -0.760217
9.77 -0.742764
9.78 -0.723769
9.79 -0.703853
9.8 -0.683592
9.81 -0.663493
9.82 -0.643951
9.83 -0.625365
9.84 -0.608063
9.85 -0.592079
9.86 -0.577777
9.87 -0.564959
9.88 -0.553613
9.89 -0.54373
9.9 -0.53494
9.91 -0.527168
9.92 -0.52007
9.93 -0.513376
9.94 -0.506839
9.95 -0.50019
9.96 -0.493181
9.97 -0.48563
9.98 -0.477447
9.99 -0.468395
10 -0.458588
10.01 -0.447967
10.02 -0.436583
10.03 -0.424608
10.04 -0.412084
10.05 -0.39924
10.06 -0.386222
10.07 -0.373191
10.08 -0.36028
10.09 -0.347635
10.1 -0.335302
10.11 -0.3233
10.12 -0.311634
10.13 -0.300167
10.14 -0.288763
10.15 -0.277204
10.16 -0.26526
10.17 -0.252499
10.18 -0.238735
10.19 -0.223493
10.2 -0.206394
10.21 -0.187301
10.22 -0.165434
10.23 -0.140958
10.24 -0.113495
10.25 -0.082732
10.26 -0.0490138
10.27 -0.0118659
10.28 0.0281927
10.29 0.0709589
10.3 0.116359
10.31 0.163615
10.32 0.212447
10.33 0.262163
10.34 0.312133
10.35 0.361621
10.36 0.410039
10.37 0.456546
10.38 0.500473
10.39 0.54148
10.4 0.578268
10.41 0.611072
10.42 0.63916
10.43 0.662029
10.44 0.680088
10.45 0.692351
10.46 0.699577
10.47 0.701767
10.48 0.698721
10.49 0.691463
10.5 0.679785
10.51 0.664523
10.52 0.646276
10.53 0.625229
10.54 0.602374
10.55 0.578072
10.56 0.552937
10.57 0.527505
10.58 0.502265
10.59 0.477582
10.6 0.453847
10.61 0.431367
10.62 0.410191
10.63 0.390712
10.64 0.372744
10.65 0.356342
10.66 0.341547
10.67 0.328046
10.68 0.315884
10.69 0.304755
10.7 0.294467
10.71 0.284911
10.72 0.2758
10.73 0.267016
10.74 0.258395
10.75 0.249823
10.76 0.241218
10.77 0.232546
10.78 0.223802
10.79 0.215023
10.8 0.206277
10.81 0.197687
10.82 0.189353
10.83 0.181431
10.84 0.174113
10.85 0.167474
10.86 0.161807
10.87 0.157152
10.88 0.15364
10.89 0.151526
10.9 0.150688
10.91 0.151376
10.92 0.153519
10.93 0.157045
10.94 0.162148
10.95 0.168505
10.96 0.176158
10.97 0.184961
10.98 0.19467
10.99 0.205271
11 0.216425
11.01 0.227967
11.02 0.239672
11.03 0.251299
11.04 0.262558
11.05 0.273241
11.06 0.283086
11.07 0.291726
11.08 0.29908
11.09 0.304665
11.1 0.30836
11.11 0.309989
11.12 0.308962
11.13 0.305481
11.14 0.299018
11.15 0.289464
11.16 0.276926
11.17 0.260606
11.18 0.241086
11.19 0.217998
11.2 0.191251
11.21 0.161276
11.22 0.12756
11.23 0.0907664
11.24 0.0509698
11.25 0.00822342
11.26 -0.0367922
11.27 -0.0840432
11.28 -0.132908
11.29 -0.182933
11.3 -0.233731
11.31 -0.284701
11.32 -0.335321
11.33 -0.385079
11.34 -0.433569
11.35 -0.479985
11.36 -0.524254
11.37 -0.565749
11.38 -0.604098
11.39 -0.639364
11.4 -0.670689
11.41 -0.698547
11.42 -0.722681
11.43 -0.742892
11.44 -0.759748
11.45 -0.772845
11.46 -0.782801
11.47 -0.789855
11.48 -0.794001
11.49 -0.795963
11.5 -0.795775
11.51 -0.793892
11.52 -0.790684
11.53 -0.786232
11.54 -0.780966
11.55 -0.774979
11.56 -0.768409
11.57 -0.761373
11.58 -0.753778
11.59 -0.745666
11.6 -0.736886
11.61 -0.727244
11.62 -0.716658
11.63 -0.704707
11.64 -0.691321
11.65 -0.676245
11.66 -0.659065
11.67 -0.639886
11.68 -0.618232
11.69 -0.594184
11.7 -0.567779
11.71 -0.538676
11.72 -0.507393
11.73 -0.473833
11.74 -0.438302
11.75 -0.40124
11.76 -0.362742
11.77 -0.323461
11.78 -0.283764
11.79 -0.24413
11.8 -0.204984
11.81 -0.166942
11.82 -0.130278
11.83 -0.0954195
11.84 -0.0628758
11.85 -0.0325945
11.86 -0.00515136
11.87 0.0195983
11.88 0.0416744
11.89 0.0607719
11.9 0.0774715
11.91 0.0916698
11.92 0.103743
11.93 0.114125
11.94 0.122883
11.95 0.13065
11.96 0.137685
11.97 0.144344
11.98 0.150954
11.99 0.15781
12 0.165075
12.01 0.172903
12.02 0.181388
12.03 0.19043
12.04 0.200003
12.05 0.20987
12.06 0.219788
12.07 0.229413
12.08 0.238445
12.09 0.246375
12.1 0.252849
12.11 0.257565
12.12 0.259757
12.13 0.259504
12.14 0.256221
12.15 0.249687
12.16 0.240065
12.17 0.226629
12.18 0.210029
12.19 0.190148
12.2 0.167064
12.21 0.14143
12.22 0.113212
12.23 0.0831633
12.24 0.0517312
12.25 0.019371
12.26 -0.01326
12.27 -0.0455948
12.28 -0.0771002
12.29 -0.107321
12.3 -0.135513
12.31 -0.161599
12.32 -0.184964
12.33 -0.205389
12.34 -0.222953
12.35 -0.236897
12.36 -0.247831
12.37 -0.255512
12.38 -0.259957
12.39 -0.261668
12.4 -0.260354
12.41 -0.256649
12.42 -0.25071
12.43 -0.242629
12.44 -0.232924
12.45 -0.221583
12.46 -0.208956
12.47 -0.195232
12.48 -0.180411
12.49 -0.164761
12.5 -0.148241
12.51 -0.130927
12.52 -0.112889
12.53 -0.0939858
12.54 -0.0743669
12.55 -0.0539646
12.56 -0.0327967
12.57 -0.0109909
12.58 0.0114709
12.59 0.0343539
12.6 0.0574911
12.61 0.0806298
12.62 0.103487
12.63 0.125618
12.64 0.146694
12.65 0.166299
12.66 0.183735
12.67 0.198867
12.68 0.21087
12.69 0.219461
12.7 0.224452
12.71 0.224789
12.72 0.220984
12.73 0.212388
12.74 0.198936
12.75 0.181116
12.76 0.158187
12.77 0.131229
12.78 0.100324
12.79 0.0657957
12.8 0.0286072
12.81 -0.0109797
12.82 -0.0519702
12.83 -0.0936555
12.84 -0.135246
12.85 -0.176022
12.86 -0.215057
12.87 -0.251771
12.88 -0.285673
12.89 -0.315704
12.9 -0.342077
12.91 -0.364041
12.92 -0.381505
12.93 -0.394821
12.94 -0.403185
12.95 -0.407663
12.96 -0.408215
12.97 -0.40515
12.98 -0.399315
12.99 -0.390799
13 -0.380516
13.01 -0.368965
13.02 -0.356648
13.03 -0.344158
13.04 -0.331967
13.05 -0.320431
13.06 -0.309807
13.07 -0.300432
13.08 -0.292185
13.09 -0.285171
13.1 -0.279194
13.11 -0.273957
13.12 -0.269219
13.13 -0.264503
13.14 -0.259353
13.15 -0.253251
13.16 -0.245841
13.17 -0.236316
13.18 -0.224549
13.19 -0.210057
13.2 -0.192326
13.21 -0.171567
13.22 -0.147156
