# xPDFsuite Configuration #
[PDF]
wavelength = 0.1
dataformat = Qnm
inputfile = A3-Li-TiO2-12h-p2_004.chi
backgroundfile = A2_Bkg-Li_d22-00000.chi
mode = xray
bgscale = 0.91
composition = TiO2
outputtype = gr
qmaxinst = 21.4
qmin = 0.1
qmax = 21.4
rmax = 100.0
rmin = 0.0
rstep = 0.01
rpoly = 0.9

[Misc]
inputdir = D:/APS_March_2019/Run3/Processed-Data/A3-Li-TiO2-12h-p2/chi-files
savedir = D:/APS_March_2019/Run3/Processed-Data/A3-Li-TiO2-12h-p2
backgroundfilefull = D:/APS_March_2019/Calib-Bkg/A2_Bkg-Li_d22-00000.chi

#### start data
#S 1
#L r($\AA$)  G($\AA^{-2}$)
0 0
0.01 -0.000358056
0.02 -0.000700528
0.03 -0.00101085
0.04 -0.00127347
0.05 -0.00148268
0.06 -0.00161784
0.07 -0.00168285
0.08 -0.00167233
0.09 -0.00158072
0.1 -0.00142228
0.11 -0.00119412
0.12 -0.00091264
0.13 -0.000590804
0.14 -0.000239833
0.15 0.000120045
0.16 0.000471379
0.17 0.000795701
0.18 0.00107797
0.19 0.00128835
0.2 0.00142203
0.21 0.00145396
0.22 0.00136627
0.23 0.00115751
0.24 0.000787605
0.25 0.000268413
0.26 -0.000419093
0.27 -0.00129584
0.28 -0.00234528
0.29 -0.00360264
0.3 -0.00504835
0.31 -0.0066805
0.32 -0.00851378
0.33 -0.0105063
0.34 -0.012658
0.35 -0.0149285
0.36 -0.0172728
0.37 -0.0196402
0.38 -0.0219595
0.39 -0.0241366
0.4 -0.0260637
0.41 -0.0276543
0.42 -0.0286732
0.43 -0.0290594
0.44 -0.0285943
0.45 -0.0270365
0.46 -0.0243307
0.47 -0.0200393
0.48 -0.0141468
0.49 -0.00643542
0.5 0.00348582
0.51 0.0154644
0.52 0.0299568
0.53 0.0468796
0.54 0.0661878
0.55 0.0882555
0.56 0.112573
0.57 0.139267
0.58 0.168059
0.59 0.198501
0.6 0.230504
0.61 0.263349
0.62 0.296582
0.63 0.329575
0.64 0.361743
0.65 0.392117
0.66 0.420198
0.67 0.445166
0.68 0.465924
0.69 0.482333
0.7 0.492929
0.71 0.497581
0.72 0.495896
0.73 0.486478
0.74 0.470217
0.75 0.446038
0.76 0.414234
0.77 0.375496
0.78 0.328808
0.79 0.276036
0.8 0.217232
0.81 0.153194
0.82 0.0853561
0.83 0.0142358
0.84 -0.0585029
0.85 -0.131701
0.86 -0.203965
0.87 -0.27418
0.88 -0.340567
0.89 -0.402298
0.9 -0.458328
0.91 -0.50686
0.92 -0.54823
0.93 -0.580784
0.94 -0.604601
0.95 -0.620029
0.96 -0.62564
0.97 -0.623403
0.98 -0.613035
0.99 -0.595411
1 -0.572144
1.01 -0.543459
1.02 -0.511532
1.03 -0.477547
1.04 -0.443008
1.05 -0.409383
1.06 -0.378482
1.07 -0.351357
1.08 -0.329255
1.09 -0.313879
1.1 -0.305088
1.11 -0.304505
1.12 -0.311882
1.13 -0.326927
1.14 -0.350579
1.15 -0.380904
1.16 -0.417816
1.17 -0.460025
1.18 -0.505849
1.19 -0.554252
1.2 -0.60315
1.21 -0.650842
1.22 -0.695381
1.23 -0.735489
1.24 -0.768435
1.25 -0.793653
1.26 -0.809631
1.27 -0.814411
1.28 -0.808768
1.29 -0.790587
1.3 -0.760854
1.31 -0.72011
1.32 -0.667516
1.33 -0.605871
1.34 -0.535414
1.35 -0.458153
1.36 -0.376319
1.37 -0.291431
1.38 -0.206184
1.39 -0.122842
1.4 -0.0438548
1.41 0.0291812
1.42 0.0926904
1.43 0.146201
1.44 0.187643
1.45 0.214772
1.46 0.22851
1.47 0.226002
1.48 0.208721
1.49 0.177018
1.5 0.129851
1.51 0.070534
1.52 -0.00108321
1.53 -0.0825611
1.54 -0.171444
1.55 -0.26649
1.56 -0.364342
1.57 -0.462789
1.58 -0.559225
1.59 -0.65162
1.6 -0.736453
1.61 -0.812846
1.62 -0.878387
1.63 -0.930802
1.64 -0.970474
1.65 -0.994114
1.66 -1.00299
1.67 -0.996769
1.68 -0.973993
1.69 -0.937485
1.7 -0.886087
1.71 -0.821904
1.72 -0.74671
1.73 -0.660403
1.74 -0.566366
1.75 -0.465449
1.76 -0.359597
1.77 -0.250833
1.78 -0.140512
1.79 -0.0304438
1.8 0.0779214
1.81 0.183145
1.82 0.284536
1.83 0.380312
1.84 0.470438
1.85 0.554184
1.86 0.630507
1.87 0.700137
1.88 0.761838
1.89 0.81619
1.9 0.863379
1.91 0.902395
1.92 0.934567
1.93 0.95907
1.94 0.976197
1.95 0.98653
1.96 0.988611
1.97 0.983824
1.98 0.971374
1.99 0.950996
2 0.923408
2.01 0.88707
2.02 0.843156
2.03 0.791301
2.04 0.731017
2.05 0.663559
2.06 0.58809
2.07 0.505865
2.08 0.417553
2.09 0.323286
2.1 0.224892
2.11 0.123026
2.12 0.0191934
2.13 -0.0851707
2.14 -0.188382
2.15 -0.289092
2.16 -0.385382
2.17 -0.475567
2.18 -0.558838
2.19 -0.632118
2.2 -0.695725
2.21 -0.747979
2.22 -0.78736
2.23 -0.814885
2.24 -0.828158
2.25 -0.828799
2.26 -0.817026
2.27 -0.792192
2.28 -0.75705
2.29 -0.711404
2.3 -0.657421
2.31 -0.597025
2.32 -0.531233
2.33 -0.462788
2.34 -0.393418
2.35 -0.325199
2.36 -0.259774
2.37 -0.199869
2.38 -0.146146
2.39 -0.100531
2.4 -0.0645893
2.41 -0.0380666
2.42 -0.0233903
2.43 -0.0193587
2.44 -0.026232
2.45 -0.044664
2.46 -0.0725158
2.47 -0.110306
2.48 -0.15613
2.49 -0.208545
2.5 -0.266902
2.51 -0.328788
2.52 -0.39298
2.53 -0.457742
2.54 -0.521592
2.55 -0.58256
2.56 -0.639801
2.57 -0.691707
2.58 -0.737023
2.59 -0.775618
2.6 -0.805382
2.61 -0.827058
2.62 -0.839993
2.63 -0.843401
2.64 -0.838557
2.65 -0.824326
2.66 -0.801938
2.67 -0.771917
2.68 -0.733864
2.69 -0.689564
2.7 -0.638848
2.71 -0.582704
2.72 -0.522107
2.73 -0.456988
2.74 -0.38876
2.75 -0.317734
2.76 -0.244552
2.77 -0.169982
2.78 -0.0944243
2.79 -0.0186007
2.8 0.0569376
2.81 0.131541
2.82 0.204765
2.83 0.275671
2.84 0.343871
2.85 0.408705
2.86 0.469021
2.87 0.524791
2.88 0.574578
2.89 0.618026
2.9 0.654786
2.91 0.682943
2.92 0.703326
2.93 0.714483
2.94 0.716082
2.95 0.708714
2.96 0.690264
2.97 0.662572
2.98 0.625023
2.99 0.577542
3 0.521701
3.01 0.45668
3.02 0.384397
3.03 0.305575
3.04 0.220746
3.05 0.131811
3.06 0.0394522
3.07 -0.0547975
3.08 -0.149695
3.09 -0.243927
3.1 -0.336454
3.11 -0.425911
3.12 -0.511343
3.13 -0.592279
3.14 -0.666867
3.15 -0.735651
3.16 -0.797618
3.17 -0.852284
3.18 -0.900273
3.19 -0.940234
3.2 -0.973321
3.21 -0.999366
3.22 -1.01801
3.23 -1.03039
3.24 -1.03568
3.25 -1.03469
3.26 -1.0276
3.27 -1.01362
3.28 -0.993736
3.29 -0.966993
3.3 -0.933447
3.31 -0.893258
3.32 -0.844673
3.33 -0.788712
3.34 -0.724128
3.35 -0.650405
3.36 -0.568108
3.37 -0.475161
3.38 -0.373025
3.39 -0.26116
3.4 -0.139206
3.41 -0.00880974
3.42 0.130709
3.43 0.277405
3.44 0.43011
3.45 0.587826
3.46 0.748139
3.47 0.909262
3.48 1.06889
3.49 1.22491
3.5 1.37383
3.51 1.51441
3.52 1.64313
3.53 1.75764
3.54 1.85722
3.55 1.93637
3.56 1.99684
3.57 2.03583
3.58 2.05142
3.59 2.04581
3.6 2.01508
3.61 1.96269
3.62 1.88904
3.63 1.79349
3.64 1.68071
3.65 1.55037
3.66 1.40625
3.67 1.25134
3.68 1.08725
3.69 0.918301
3.7 0.747028
3.71 0.576547
3.72 0.409352
3.73 0.249259
3.74 0.0972746
3.75 -0.0438437
3.76 -0.172091
3.77 -0.287731
3.78 -0.387449
3.79 -0.473054
3.8 -0.544061
3.81 -0.599792
3.82 -0.643003
3.83 -0.672886
3.84 -0.692019
3.85 -0.702049
3.86 -0.703618
3.87 -0.699663
3.88 -0.691239
3.89 -0.680202
3.9 -0.668094
3.91 -0.656212
3.92 -0.645544
3.93 -0.637006
3.94 -0.631158
3.95 -0.627946
3.96 -0.627839
3.97 -0.630073
3.98 -0.634255
3.99 -0.63973
4 -0.64554
4.01 -0.650689
4.02 -0.654273
4.03 -0.655385
4.04 -0.65276
4.05 -0.646234
4.06 -0.634651
4.07 -0.617935
4.08 -0.596239
4.09 -0.56882
4.1 -0.536991
4.11 -0.500894
4.12 -0.461446
4.13 -0.419907
4.14 -0.377243
4.15 -0.334916
4.16 -0.294288
4.17 -0.25689
4.18 -0.223549
4.19 -0.196322
4.2 -0.175475
4.21 -0.161874
4.22 -0.156824
4.23 -0.159359
4.24 -0.170535
4.25 -0.189313
4.26 -0.214747
4.27 -0.246722
4.28 -0.282949
4.29 -0.322356
4.3 -0.363084
4.31 -0.403344
4.32 -0.44075
4.33 -0.473933
4.34 -0.500649
4.35 -0.518868
4.36 -0.52809
4.37 -0.525121
4.38 -0.510598
4.39 -0.483461
4.4 -0.442325
4.41 -0.389097
4.42 -0.322332
4.43 -0.24405
4.44 -0.155586
4.45 -0.0572082
4.46 0.047865
4.47 0.158405
4.48 0.271959
4.49 0.386226
4.5 0.498624
4.51 0.607248
4.52 0.709495
4.53 0.80313
4.54 0.887336
4.55 0.958402
4.56 1.017
4.57 1.06152
4.58 1.09036
4.59 1.10522
4.6 1.10382
4.61 1.08822
4.62 1.05915
4.63 1.0161
4.64 0.9623
4.65 0.897775
4.66 0.824752
4.67 0.745276
4.68 0.660209
4.69 0.572189
4.7 0.482627
4.71 0.393235
4.72 0.305377
4.73 0.220955
4.74 0.140563
4.75 0.065449
4.76 -0.00330545
4.77 -0.0659231
4.78 -0.120905
4.79 -0.16899
4.8 -0.210098
4.81 -0.243718
4.82 -0.271215
4.83 -0.292162
4.84 -0.307583
4.85 -0.318279
4.86 -0.324262
4.87 -0.326971
4.88 -0.326751
4.89 -0.324402
4.9 -0.32074
4.91 -0.316261
4.92 -0.311719
4.93 -0.307676
4.94 -0.304714
4.95 -0.303162
4.96 -0.30378
4.97 -0.306664
4.98 -0.312216
4.99 -0.320982
5 -0.332764
5.01 -0.348254
5.02 -0.367273
5.03 -0.389823
5.04 -0.416426
5.05 -0.446409
5.06 -0.480072
5.07 -0.517052
5.08 -0.556822
5.09 -0.59946
5.1 -0.643959
5.11 -0.689871
5.12 -0.736429
5.13 -0.782786
5.14 -0.827798
5.15 -0.870632
5.16 -0.91008
5.17 -0.944632
5.18 -0.973772
5.19 -0.995227
5.2 -1.00857
5.21 -1.01275
5.22 -1.00544
5.23 -0.987435
5.24 -0.956412
5.25 -0.91244
5.26 -0.855906
5.27 -0.784317
5.28 -0.700304
5.29 -0.602869
5.3 -0.492726
5.31 -0.371942
5.32 -0.239712
5.33 -0.0992845
5.34 0.0482575
5.35 0.201254
5.36 0.357158
5.37 0.514051
5.38 0.669591
5.39 0.821584
5.4 0.967163
5.41 1.10518
5.42 1.23229
5.43 1.34736
5.44 1.44933
5.45 1.53445
5.46 1.60437
5.47 1.65647
5.48 1.6906
5.49 1.70826
5.5 1.70617
5.51 1.68832
5.52 1.65421
5.53 1.60457
5.54 1.54246
5.55 1.46747
5.56 1.38308
5.57 1.29094
5.58 1.1926
5.59 1.09089
5.6 0.987506
5.61 0.884601
5.62 0.783926
5.63 0.687745
5.64 0.59681
5.65 0.513134
5.66 0.437523
5.67 0.370059
5.68 0.312996
5.69 0.26471
5.7 0.226015
5.71 0.196734
5.72 0.175375
5.73 0.16262
5.74 0.156319
5.75 0.155741
5.76 0.160027
5.77 0.167414
5.78 0.17705
5.79 0.187498
5.8 0.197651
5.81 0.206274
5.82 0.212692
5.83 0.215754
5.84 0.214977
5.85 0.210165
5.86 0.200237
5.87 0.18596
5.88 0.166942
5.89 0.143435
5.9 0.116229
5.91 0.0851655
5.92 0.0514546
5.93 0.0155977
5.94 -0.0217303
5.95 -0.0596547
5.96 -0.097459
5.97 -0.134467
5.98 -0.170071
5.99 -0.203522
6 -0.234714
6.01 -0.26298
6.02 -0.288326
6.03 -0.310825
6.04 -0.330087
6.05 -0.346825
6.06 -0.361055
6.07 -0.373232
6.08 -0.383966
6.09 -0.393567
6.1 -0.402763
6.11 -0.412063
6.12 -0.422033
6.13 -0.433039
6.14 -0.445733
6.15 -0.46021
6.16 -0.476718
6.17 -0.495535
6.18 -0.516314
6.19 -0.539174
6.2 -0.563649
6.21 -0.589306
6.22 -0.615732
6.23 -0.642227
6.24 -0.668099
6.25 -0.692633
6.26 -0.715276
6.27 -0.734794
6.28 -0.751088
6.29 -0.763249
6.3 -0.77067
6.31 -0.773504
6.32 -0.770588
6.33 -0.762654
6.34 -0.749555
6.35 -0.731182
6.36 -0.708596
6.37 -0.681727
6.38 -0.651695
6.39 -0.619319
6.4 -0.585332
6.41 -0.550919
6.42 -0.517105
6.43 -0.484909
6.44 -0.455135
6.45 -0.42931
6.46 -0.407544
6.47 -0.390953
6.48 -0.380083
6.49 -0.37467
6.5 -0.375967
6.51 -0.382844
6.52 -0.395359
6.53 -0.41328
6.54 -0.435302
6.55 -0.461161
6.56 -0.489411
6.57 -0.518974
6.58 -0.548634
6.59 -0.577174
6.6 -0.603065
6.61 -0.625222
6.62 -0.642747
6.63 -0.65366
6.64 -0.658193
6.65 -0.654891
6.66 -0.643356
6.67 -0.624098
6.68 -0.595448
6.69 -0.559207
6.7 -0.515199
6.71 -0.463837
6.72 -0.406759
6.73 -0.344085
6.74 -0.277675
6.75 -0.208664
6.76 -0.138265
6.77 -0.0679359
6.78 0.000886121
6.79 0.0670635
6.8 0.129608
6.81 0.186837
6.82 0.238796
6.83 0.284171
6.84 0.322725
6.85 0.354826
6.86 0.379119
6.87 0.397206
6.88 0.408904
6.89 0.4147
6.9 0.415904
6.91 0.412601
6.92 0.40633
6.93 0.3979
6.94 0.388191
6.95 0.378236
6.96 0.368926
6.97 0.360949
6.98 0.354869
6.99 0.35146
7 0.35061
7.01 0.352801
7.02 0.357861
7.03 0.36543
7.04 0.375602
7.05 0.387496
7.06 0.400742
7.07 0.414713
7.08 0.428757
7.09 0.442168
7.1 0.454475
7.11 0.465123
7.12 0.473593
7.13 0.479906
7.14 0.483575
7.15 0.484947
7.16 0.484237
7.17 0.481658
7.18 0.478014
7.19 0.473917
7.2 0.470238
7.21 0.467808
7.22 0.467966
7.23 0.471238
7.24 0.478967
7.25 0.492029
7.26 0.510641
7.27 0.536712
7.28 0.569425
7.29 0.609523
7.3 0.657298
7.31 0.711622
7.32 0.773095
7.33 0.840064
7.34 0.911657
7.35 0.986939
7.36 1.06404
7.37 1.14148
7.38 1.21749
7.39 1.29042
7.4 1.35773
7.41 1.41857
7.42 1.47036
7.43 1.5117
7.44 1.54221
7.45 1.55814
7.46 1.56117
7.47 1.54944
7.48 1.52222
7.49 1.48117
7.5 1.42396
7.51 1.35339
7.52 1.26981
7.53 1.17344
7.54 1.06725
7.55 0.951382
7.56 0.82845
7.57 0.700299
7.58 0.568347
7.59 0.434982
7.6 0.301964
7.61 0.171093
7.62 0.0437296
7.63 -0.0777011
7.64 -0.192965
7.65 -0.300326
7.66 -0.398819
7.67 -0.488761
7.68 -0.567973
7.69 -0.637906
7.7 -0.698057
7.71 -0.748064
7.72 -0.78954
7.73 -0.82159
7.74 -0.845837
7.75 -0.862932
7.76 -0.87286
7.77 -0.877376
7.78 -0.87649
7.79 -0.871229
7.8 -0.862418
7.81 -0.850081
7.82 -0.835274
7.83 -0.818114
7.84 -0.798945
7.85 -0.778163
7.86 -0.755605
7.87 -0.73165
7.88 -0.706232
7.89 -0.679297
7.9 -0.65102
7.91 -0.621162
7.92 -0.589939
7.93 -0.557388
7.94 -0.523504
7.95 -0.488637
7.96 -0.452902
7.97 -0.41668
7.98 -0.380344
7.99 -0.344384
8 -0.309217
8.01 -0.275501
8.02 -0.243783
8.03 -0.214406
8.04 -0.188548
8.05 -0.16609
8.06 -0.147827
8.07 -0.134298
8.08 -0.125276
8.09 -0.121859
8.1 -0.12338
8.11 -0.129987
8.12 -0.141916
8.13 -0.158187
8.14 -0.179033
8.15 -0.203495
8.16 -0.230887
8.17 -0.260761
8.18 -0.291942
8.19 -0.323664
8.2 -0.354952
8.21 -0.384979
8.22 -0.412403
8.23 -0.43681
8.24 -0.45705
8.25 -0.472288
8.26 -0.482434
8.27 -0.485853
8.28 -0.483148
8.29 -0.473727
8.3 -0.457031
8.31 -0.433994
8.32 -0.403735
8.33 -0.367327
8.34 -0.325211
8.35 -0.277351
8.36 -0.225245
8.37 -0.169126
8.38 -0.110095
8.39 -0.0491524
8.4 0.0129505
8.41 0.0750968
8.42 0.136326
8.43 0.195686
8.44 0.252563
8.45 0.305503
8.46 0.354448
8.47 0.398502
8.48 0.43689
8.49 0.469917
8.5 0.496321
8.51 0.51675
8.52 0.531098
8.53 0.538873
8.54 0.541213
8.55 0.537676
8.56 0.529139
8.57 0.516294
8.58 0.499152
8.59 0.479051
8.6 0.45637
8.61 0.431937
8.62 0.406582
8.63 0.380978
8.64 0.355858
8.65 0.33192
8.66 0.309836
8.67 0.289888
8.68 0.272976
8.69 0.259033
8.7 0.248385
8.71 0.241448
8.72 0.237747
8.73 0.237695
8.74 0.240779
8.75 0.246659
8.76 0.2553
8.77 0.265846
8.78 0.278009
8.79 0.291159
8.8 0.304696
8.81 0.318013
8.82 0.330595
8.83 0.341826
8.84 0.351174
8.85 0.358439
8.86 0.362809
8.87 0.364459
8.88 0.363092
8.89 0.358451
8.9 0.350993
8.91 0.340415
8.92 0.327289
8.93 0.31195
8.94 0.294599
8.95 0.275992
8.96 0.256519
8.97 0.236796
8.98 0.217359
8.99 0.1989
9 0.181755
9.01 0.166543
9.02 0.153666
9.03 0.143183
9.04 0.135831
9.05 0.131203
9.06 0.129473
9.07 0.13064
9.08 0.134135
9.09 0.139975
9.1 0.14744
9.11 0.15604
9.12 0.165231
9.13 0.174319
9.14 0.182565
9.15 0.189344
9.16 0.194105
9.17 0.195817
9.18 0.194444
9.19 0.189135
9.2 0.179588
9.21 0.165945
9.22 0.147162
9.23 0.124132
9.24 0.0965973
9.25 0.0646752
9.26 0.0291874
9.27 -0.0100039
9.28 -0.0518659
9.29 -0.0958764
9.3 -0.141481
9.31 -0.187802
9.32 -0.234181
9.33 -0.279916
9.34 -0.324409
9.35 -0.366815
9.36 -0.406967
9.37 -0.444141
9.38 -0.478125
9.39 -0.508979
9.4 -0.535969
9.41 -0.559808
9.42 -0.58033
9.43 -0.59775
9.44 -0.612705
9.45 -0.625188
9.46 -0.636016
9.47 -0.645599
9.48 -0.654406
9.49 -0.663007
9.5 -0.671886
9.51 -0.681433
9.52 -0.691972
9.53 -0.703914
9.54 -0.717202
9.55 -0.732071
9.56 -0.748369
9.57 -0.765846
9.58 -0.784375
9.59 -0.803394
9.6 -0.822447
9.61 -0.840933
9.62 -0.858326
9.63 -0.873601
9.64 -0.886406
9.65 -0.89588
9.66 -0.901115
9.67 -0.902024
9.68 -0.897196
9.69 -0.886794
9.7 -0.870382
9.71 -0.847005
9.72 -0.817502
9.73 -0.78094
9.74 -0.737907
9.75 -0.688906
9.76 -0.63338
9.77 -0.572868
9.78 -0.507415
9.79 -0.437852
9.8 -0.365278
9.81 -0.29008
9.82 -0.213616
9.83 -0.136729
9.84 -0.060442
9.85 0.0144121
9.86 0.0864917
9.87 0.155257
9.88 0.219796
9.89 0.278879
9.9 0.332592
9.91 0.379448
9.92 0.41952
9.93 0.452638
9.94 0.477488
9.95 0.495233
9.96 0.504952
9.97 0.507028
9.98 0.502263
9.99 0.489633
10 0.470959
10.01 0.446185
10.02 0.415876
10.03 0.381275
10.04 0.342445
10.05 0.300813
10.06 0.257104
10.07 0.212149
10.08 0.166964
10.09 0.122511
10.1 0.0796075
10.11 0.0390419
10.12 0.00200642
10.13 -0.0313355
10.14 -0.059799
10.15 -0.0830693
10.16 -0.101068
10.17 -0.112436
10.18 -0.11812
10.19 -0.117457
10.2 -0.110532
10.21 -0.0981679
10.22 -0.079681
10.23 -0.0565175
10.24 -0.0289838
10.25 0.0023727
10.26 0.0363224
10.27 0.07231
10.28 0.109153
10.29 0.145907
10.3 0.181444
10.31 0.214998
10.32 0.245255
10.33 0.271521
10.34 0.293231
10.35 0.308813
10.36 0.31872
10.37 0.321853
10.38 0.318041
10.39 0.307825
10.4 0.28993
10.41 0.265911
10.42 0.235678
10.43 0.199622
10.44 0.159082
10.45 0.11421
10.46 0.06652
10.47 0.0169653
10.48 -0.0333887
10.49 -0.0833396
10.5 -0.131556
10.51 -0.177022
10.52 -0.21879
10.53 -0.25515
10.54 -0.28607
10.55 -0.310036
10.56 -0.326588
10.57 -0.335865
10.58 -0.335926
10.59 -0.328235
10.6 -0.31203
10.61 -0.287309
10.62 -0.255271
10.63 -0.215026
10.64 -0.168306
10.65 -0.115509
10.66 -0.0570343
10.67 0.0055848
10.68 0.0720467
10.69 0.14107
10.7 0.211759
10.71 0.283333
10.72 0.354849
10.73 0.42547
10.74 0.494504
10.75 0.561472
10.76 0.625346
10.77 0.686222
10.78 0.743428
10.79 0.796678
10.8 0.846212
10.81 0.891173
10.82 0.93225
10.83 0.969245
10.84 1.00202
10.85 1.0312
10.86 1.05633
10.87 1.07799
10.88 1.09632
10.89 1.11107
10.9 1.12288
10.91 1.13139
10.92 1.13688
10.93 1.13949
10.94 1.13871
10.95 1.13505
10.96 1.12808
10.97 1.11773
10.98 1.1042
10.99 1.08665
11 1.06561
11.01 1.0407
11.02 1.01161
11.03 0.978739
11.04 0.941328
11.05 0.899911
11.06 0.85441
11.07 0.804505
11.08 0.750903
11.09 0.693208
11.1 0.63195
11.11 0.567482
11.12 0.499657
11.13 0.429336
11.14 0.356599
11.15 0.281937
11.16 0.2059
11.17 0.128721
11.18 0.0510477
11.19 -0.0267139
11.2 -0.104086
11.21 -0.180702
11.22 -0.25593
11.23 -0.329565
11.24 -0.401176
11.25 -0.470229
11.26 -0.536764
11.27 -0.60006
11.28 -0.660177
11.29 -0.716965
11.3 -0.769789
11.31 -0.819122
11.32 -0.864394
11.33 -0.905719
11.34 -0.943334
11.35 -0.976509
11.36 -1.00603
11.37 -1.03156
11.38 -1.05314
11.39 -1.07124
11.4 -1.08527
11.41 -1.09597
11.42 -1.10323
11.43 -1.10699
11.44 -1.10777
11.45 -1.10519
11.46 -1.09972
11.47 -1.09142
11.48 -1.08008
11.49 -1.06618
11.5 -1.04943
11.51 -1.03004
11.52 -1.00816
11.53 -0.983362
11.54 -0.956132
11.55 -0.926177
11.56 -0.893505
11.57 -0.858354
11.58 -0.820185
11.59 -0.779496
11.6 -0.736098
11.61 -0.689912
11.62 -0.641315
11.63 -0.589974
11.64 -0.536354
11.65 -0.48058
11.66 -0.422691
11.67 -0.363242
11.68 -0.302359
11.69 -0.240541
11.7 -0.178233
11.71 -0.115925
11.72 -0.0541324
11.73 0.00647498
11.74 0.0652955
11.75 0.121909
11.76 0.175068
11.77 0.224764
11.78 0.27004
11.79 0.310145
11.8 0.345126
11.81 0.373427
11.82 0.395529
11.83 0.410853
11.84 0.418569
11.85 0.419524
11.86 0.412565
11.87 0.398466
11.88 0.377517
11.89 0.349104
11.9 0.314752
11.91 0.274209
11.92 0.228364
11.93 0.178225
11.94 0.123853
11.95 0.066793
11.96 0.0076565
11.97 -0.052611
11.98 -0.113043
11.99 -0.172607
12 -0.230553
12.01 -0.285957
12.02 -0.337799
12.03 -0.385848
12.04 -0.428751
12.05 -0.466514
12.06 -0.498731
12.07 -0.524395
12.08 -0.544278
12.09 -0.557481
12.1 -0.564437
12.11 -0.565627
12.12 -0.560336
12.13 -0.550002
12.14 -0.534526
12.15 -0.514509
12.16 -0.490932
12.17 -0.463814
12.18 -0.434408
12.19 -0.403235
12.2 -0.370968
12.21 -0.338373
12.22 -0.306127
12.23 -0.27479
12.24 -0.244901
12.25 -0.217124
12.26 -0.191533
12.27 -0.168771
12.28 -0.148827
12.29 -0.131679
12.3 -0.11775
12.31 -0.106403
12.32 -0.0977124
12.33 -0.0912742
12.34 -0.0865134
12.35 -0.0831996
12.36 -0.0805188
12.37 -0.0779074
12.38 -0.0746593
12.39 -0.070209
12.4 -0.0635378
12.41 -0.0542741
12.42 -0.0417037
12.43 -0.0249086
12.44 -0.00396088
12.45 0.0222735
12.46 0.0536519
12.47 0.0902624
12.48 0.132916
12.49 0.180616
12.5 0.233795
12.51 0.291858
12.52 0.353984
12.53 0.420216
12.54 0.489071
12.55 0.559898
12.56 0.631644
12.57 0.7032
12.58 0.773172
12.59 0.840605
12.6 0.904168
12.61 0.962299
12.62 1.01459
12.63 1.05882
12.64 1.09483
12.65 1.1218
12.66 1.13782
12.67 1.14395
12.68 1.13838
12.69 1.12156
12.7 1.09412
12.71 1.05436
12.72 1.00471
12.73 0.944682
12.74 0.875102
12.75 0.79772
12.76 0.712139
12.77 0.62082
12.78 0.524569
12.79 0.424532
12.8 0.322374
12.81 0.219171
12.82 0.116291
12.83 0.0148733
12.84 -0.0837323
12.85 -0.179006
12.86 -0.269561
12.87 -0.355051
12.88 -0.4352
12.89 -0.508752
12.9 -0.576602
12.91 -0.638049
12.92 -0.69337
12.93 -0.743348
12.94 -0.787282
12.95 -0.826703
12.96 -0.861747
12.97 -0.892908
12.98 -0.921183
12.99 -0.946711
13 -0.970414
13.01 -0.992724
13.02 -1.014
13.03 -1.03471
13.04 -1.05501
13.05 -1.07507
13.06 -1.09492
13.07 -1.1144
13.08 -1.13338
13.09 -1.15147
13.1 -1.16831
13.11 -1.18358
13.12 -1.19637
13.13 -1.2066
13.14 -1.21346
13.15 -1.21636
13.16 -1.21525
13.17 -1.20885
13.18 -1.19756
13.19 -1.18087
13.2 -1.15818
13.21 -1.13018
13.22 -1.09596
13.23 -1.05628
13.24 -1.01135
13.25 -0.960842
13.26 -0.90595
13.27 -0.846527
13.28 -0.783317
