# xPDFsuite Configuration #
[PDF]
wavelength = 0.1
dataformat = Qnm
inputfile = A3-Li-TiO2-12h-p2_006.chi
backgroundfile = A2_Bkg-Li_d22-00000.chi
mode = xray
bgscale = 0.91
composition = TiO2
outputtype = gr
qmaxinst = 21.4
qmin = 0.1
qmax = 21.4
rmax = 100.0
rmin = 0.0
rstep = 0.01
rpoly = 0.9

[Misc]
inputdir = D:/APS_March_2019/Run3/Processed-Data/A3-Li-TiO2-12h-p2/chi-files
savedir = D:/APS_March_2019/Run3/Processed-Data/A3-Li-TiO2-12h-p2
backgroundfilefull = D:/APS_March_2019/Calib-Bkg/A2_Bkg-Li_d22-00000.chi

#### start data
#S 1
#L r($\AA$)  G($\AA^{-2}$)
0 0
0.01 -0.000308896
0.02 -0.000604348
0.03 -0.000872065
0.04 -0.00109864
0.05 -0.00127913
0.06 -0.00139575
0.07 -0.00145184
0.08 -0.00144276
0.09 -0.00136369
0.1 -0.00122694
0.11 -0.00102999
0.12 -0.000787006
0.13 -0.000509192
0.14 -0.00020631
0.15 0.000104069
0.16 0.000406614
0.17 0.000685042
0.18 0.000925957
0.19 0.0011025
0.2 0.00120999
0.21 0.00122523
0.22 0.00113111
0.23 0.000925306
0.24 0.00056925
0.25 7.24257e-05
0.26 -0.000584884
0.27 -0.00142477
0.28 -0.00243321
0.29 -0.00364691
0.3 -0.00504864
0.31 -0.0066384
0.32 -0.00843308
0.33 -0.0103917
0.34 -0.0125161
0.35 -0.0147662
0.36 -0.0170968
0.37 -0.0194577
0.38 -0.0217754
0.39 -0.0239545
0.4 -0.025885
0.41 -0.0274774
0.42 -0.0284927
0.43 -0.0288673
0.44 -0.0283784
0.45 -0.0267805
0.46 -0.0240173
0.47 -0.0196449
0.48 -0.0136489
0.49 -0.0058099
0.5 0.00426516
0.51 0.0164188
0.52 0.0311078
0.53 0.0482427
0.54 0.0677723
0.55 0.0900637
0.56 0.114598
0.57 0.141491
0.58 0.170452
0.59 0.201024
0.6 0.233095
0.61 0.265942
0.62 0.299094
0.63 0.331906
0.64 0.363793
0.65 0.393756
0.66 0.421305
0.67 0.44561
0.68 0.465561
0.69 0.481038
0.7 0.490565
0.71 0.494029
0.72 0.491051
0.73 0.480244
0.74 0.462532
0.75 0.436858
0.76 0.403548
0.77 0.363325
0.78 0.315217
0.79 0.261117
0.8 0.201124
0.81 0.136082
0.82 0.0674378
0.83 -0.00420693
0.84 -0.0771972
0.85 -0.150331
0.86 -0.222169
0.87 -0.291623
0.88 -0.356849
0.89 -0.417057
0.9 -0.471208
0.91 -0.517482
0.92 -0.556292
0.93 -0.585982
0.94 -0.606691
0.95 -0.618829
0.96 -0.621002
0.97 -0.61527
0.98 -0.601414
0.99 -0.580385
1 -0.553859
1.01 -0.522175
1.02 -0.487538
1.03 -0.451216
1.04 -0.414797
1.05 -0.379737
1.06 -0.347971
1.07 -0.320511
1.08 -0.298621
1.09 -0.284056
1.1 -0.276574
1.11 -0.277833
1.12 -0.287499
1.13 -0.305201
1.14 -0.331848
1.15 -0.365367
1.16 -0.405597
1.17 -0.451137
1.18 -0.500206
1.19 -0.551628
1.2 -0.603257
1.21 -0.653274
1.22 -0.699628
1.23 -0.741033
1.24 -0.774597
1.25 -0.79981
1.26 -0.815126
1.27 -0.818535
1.28 -0.810939
1.29 -0.790183
1.3 -0.757383
1.31 -0.713178
1.32 -0.656797
1.33 -0.59121
1.34 -0.516778
1.35 -0.435654
1.36 -0.35019
1.37 -0.262119
1.38 -0.174184
1.39 -0.0888155
1.4 -0.00857962
1.41 0.0649385
1.42 0.127953
1.43 0.180111
1.44 0.21931
1.45 0.243284
1.46 0.25314
1.47 0.24601
1.48 0.22357
1.49 0.186321
1.5 0.133365
1.51 0.0682304
1.52 -0.00902904
1.53 -0.0957814
1.54 -0.189415
1.55 -0.288384
1.56 -0.389316
1.57 -0.489771
1.58 -0.58704
1.59 -0.679147
1.6 -0.762314
1.61 -0.835906
1.62 -0.8975
1.63 -0.944886
1.64 -0.978722
1.65 -0.995801
1.66 -0.99771
1.67 -0.98435
1.68 -0.954579
1.69 -0.911477
1.7 -0.854273
1.71 -0.78532
1.72 -0.706609
1.73 -0.618539
1.74 -0.524418
1.75 -0.425475
1.76 -0.323743
1.77 -0.221109
1.78 -0.119358
1.79 -0.0198126
1.8 0.0760456
1.81 0.166924
1.82 0.252583
1.83 0.331343
1.84 0.403702
1.85 0.469303
1.86 0.527551
1.87 0.579592
1.88 0.624767
1.89 0.664021
1.9 0.697902
1.91 0.726105
1.92 0.749897
1.93 0.769057
1.94 0.783996
1.95 0.795176
1.96 0.801835
1.97 0.804674
1.98 0.803088
1.99 0.796659
2 0.785532
2.01 0.768259
2.02 0.745245
2.03 0.715768
2.04 0.678913
2.05 0.635316
2.06 0.583639
2.07 0.524627
2.08 0.458487
2.09 0.384703
2.1 0.304965
2.11 0.219308
2.12 0.129071
2.13 0.0356623
2.14 -0.0598751
2.15 -0.155676
2.16 -0.250077
2.17 -0.341271
2.18 -0.427987
2.19 -0.507342
2.2 -0.578934
2.21 -0.640854
2.22 -0.691251
2.23 -0.7306
2.24 -0.756185
2.25 -0.769171
2.26 -0.769414
2.27 -0.755846
2.28 -0.731043
2.29 -0.694406
2.3 -0.647998
2.31 -0.593692
2.32 -0.532184
2.33 -0.466513
2.34 -0.398299
2.35 -0.329765
2.36 -0.26284
2.37 -0.20024
2.38 -0.14306
2.39 -0.0934115
2.4 -0.0531155
2.41 -0.0221902
2.42 -0.00332325
2.43 0.00450364
2.44 0.000848668
2.45 -0.015145
2.46 -0.0413188
2.47 -0.0783532
2.48 -0.124261
2.49 -0.177523
2.5 -0.237488
2.51 -0.30149
2.52 -0.368189
2.53 -0.435637
2.54 -0.502145
2.55 -0.565492
2.56 -0.624681
2.57 -0.677879
2.58 -0.723649
2.59 -0.761837
2.6 -0.790076
2.61 -0.809235
2.62 -0.818639
2.63 -0.817505
2.64 -0.807356
2.65 -0.78712
2.66 -0.758311
2.67 -0.721692
2.68 -0.677149
2.69 -0.626729
2.7 -0.570622
2.71 -0.510075
2.72 -0.446242
2.73 -0.379552
2.74 -0.31132
2.75 -0.242168
2.76 -0.172832
2.77 -0.103903
2.78 -0.0360936
2.79 0.0303117
2.8 0.0948333
2.81 0.156988
2.82 0.216776
2.83 0.273465
2.84 0.327121
2.85 0.37746
2.86 0.423781
2.87 0.466365
2.88 0.504297
2.89 0.537496
2.9 0.565822
2.91 0.587965
2.92 0.604544
2.93 0.61449
2.94 0.617493
2.95 0.613886
2.96 0.601944
2.97 0.582884
2.98 0.556037
2.99 0.521112
3 0.479168
3.01 0.429224
3.02 0.372679
3.03 0.309902
3.04 0.241038
3.05 0.167661
3.06 0.0900375
3.07 0.00947715
3.08 -0.0729644
3.09 -0.156363
3.1 -0.239537
3.11 -0.321362
3.12 -0.400827
3.13 -0.477266
3.14 -0.54901
3.15 -0.616155
3.16 -0.677616
3.17 -0.732712
3.18 -0.781762
3.19 -0.82329
3.2 -0.85818
3.21 -0.886106
3.22 -0.906565
3.23 -0.920621
3.24 -0.927385
3.25 -0.927706
3.26 -0.921842
3.27 -0.909145
3.28 -0.890777
3.29 -0.866058
3.3 -0.835307
3.31 -0.798907
3.32 -0.755664
3.33 -0.706633
3.34 -0.651032
3.35 -0.588635
3.36 -0.519968
3.37 -0.4436
3.38 -0.360623
3.39 -0.270646
3.4 -0.173373
3.41 -0.0699376
3.42 0.040264
3.43 0.155914
3.44 0.276279
3.45 0.400815
3.46 0.527806
3.47 0.656149
3.48 0.784216
3.49 0.910483
3.5 1.03259
3.51 1.14947
3.52 1.2586
3.53 1.35818
3.54 1.44749
3.55 1.52246
3.56 1.58409
3.57 1.63012
3.58 1.65889
3.59 1.67179
3.6 1.66555
3.61 1.64253
3.62 1.60273
3.63 1.5453
3.64 1.47363
3.65 1.38701
3.66 1.28819
3.67 1.17931
3.68 1.06108
3.69 0.937049
3.7 0.808769
3.71 0.678628
3.72 0.548725
3.73 0.421511
3.74 0.298314
3.75 0.181138
3.76 0.0716082
3.77 -0.0300819
3.78 -0.121519
3.79 -0.203611
3.8 -0.275824
3.81 -0.337484
3.82 -0.390326
3.83 -0.433597
3.84 -0.468977
3.85 -0.497515
3.86 -0.519477
3.87 -0.53694
3.88 -0.550484
3.89 -0.561378
3.9 -0.570713
3.91 -0.579176
3.92 -0.587588
3.93 -0.596444
3.94 -0.606065
3.95 -0.616468
3.96 -0.627688
3.97 -0.639319
3.98 -0.650938
3.99 -0.66191
4 -0.671684
4.01 -0.67923
4.02 -0.684037
4.03 -0.685421
4.04 -0.682257
4.05 -0.674705
4.06 -0.661737
4.07 -0.643459
4.08 -0.620141
4.09 -0.591119
4.1 -0.557735
4.11 -0.520128
4.12 -0.479165
4.13 -0.436036
4.14 -0.391568
4.15 -0.347136
4.16 -0.303952
4.17 -0.263383
4.18 -0.226218
4.19 -0.194282
4.2 -0.167878
4.21 -0.147823
4.22 -0.135343
4.23 -0.12966
4.24 -0.131828
4.25 -0.141023
4.26 -0.15651
4.27 -0.178402
4.28 -0.204708
4.29 -0.234704
4.3 -0.266869
4.31 -0.299654
4.32 -0.331323
4.33 -0.360519
4.34 -0.385466
4.35 -0.404482
4.36 -0.416987
4.37 -0.420444
4.38 -0.415164
4.39 -0.400207
4.4 -0.374377
4.41 -0.339043
4.42 -0.292948
4.43 -0.237584
4.44 -0.173909
4.45 -0.10199
4.46 -0.0243436
4.47 0.0582037
4.48 0.14377
4.49 0.230554
4.5 0.316719
4.51 0.400661
4.52 0.480448
4.53 0.55436
4.54 0.621683
4.55 0.679676
4.56 0.728724
4.57 0.767598
4.58 0.795088
4.59 0.812388
4.6 0.817794
4.61 0.812803
4.62 0.797927
4.63 0.772769
4.64 0.739694
4.65 0.698702
4.66 0.651412
4.67 0.599306
4.68 0.542975
4.69 0.484342
4.7 0.424386
4.71 0.364316
4.72 0.305108
4.73 0.248034
4.74 0.193534
4.75 0.142432
4.76 0.0954324
4.77 0.0523836
4.78 0.014225
4.79 -0.0195471
4.8 -0.0489191
4.81 -0.0736171
4.82 -0.0945374
4.83 -0.11147
4.84 -0.125088
4.85 -0.135919
4.86 -0.144025
4.87 -0.150287
4.88 -0.154946
4.89 -0.158494
4.9 -0.161409
4.91 -0.164019
4.92 -0.166732
4.93 -0.169887
4.94 -0.173822
4.95 -0.178709
4.96 -0.185014
4.97 -0.192777
4.98 -0.202247
4.99 -0.213778
5 -0.227253
5.01 -0.24314
5.02 -0.261353
5.03 -0.281926
5.04 -0.305254
5.05 -0.33092
5.06 -0.359183
5.07 -0.389834
5.08 -0.42254
5.09 -0.457419
5.1 -0.493766
5.11 -0.531299
5.12 -0.56949
5.13 -0.607715
5.14 -0.645181
5.15 -0.681241
5.16 -0.715004
5.17 -0.745349
5.18 -0.771846
5.19 -0.792804
5.2 -0.807852
5.21 -0.816173
5.22 -0.815997
5.23 -0.807872
5.24 -0.790019
5.25 -0.762447
5.26 -0.725409
5.27 -0.676979
5.28 -0.619104
5.29 -0.550978
5.3 -0.473087
5.31 -0.386959
5.32 -0.291873
5.33 -0.190266
5.34 -0.0828597
5.35 0.0292034
5.36 0.144019
5.37 0.260353
5.38 0.376452
5.39 0.490777
5.4 0.601389
5.41 0.707369
5.42 0.806487
5.43 0.89789
5.44 0.980821
5.45 1.05277
5.46 1.11477
5.47 1.16506
5.48 1.2035
5.49 1.23106
5.5 1.24552
5.51 1.24949
5.52 1.24257
5.53 1.22517
5.54 1.19926
5.55 1.1644
5.56 1.12285
5.57 1.07553
5.58 1.02329
5.59 0.967933
5.6 0.910271
5.61 0.851654
5.62 0.793111
5.63 0.735749
5.64 0.6802
5.65 0.627441
5.66 0.577967
5.67 0.531917
5.68 0.490328
5.69 0.452548
5.7 0.418958
5.71 0.389496
5.72 0.363516
5.73 0.341329
5.74 0.321999
5.75 0.305224
5.76 0.290663
5.77 0.27757
5.78 0.265653
5.79 0.254331
5.8 0.243198
5.81 0.231858
5.82 0.220046
5.83 0.207442
5.84 0.193913
5.85 0.179426
5.86 0.163775
5.87 0.147198
5.88 0.129701
5.89 0.111447
5.9 0.0926865
5.91 0.0735757
5.92 0.0544035
5.93 0.0354021
5.94 0.0168293
5.95 -0.00117068
5.96 -0.0182989
5.97 -0.0345184
5.98 -0.0497364
5.99 -0.063806
6 -0.0769096
6.01 -0.0889902
6.02 -0.100249
6.03 -0.110893
6.04 -0.121076
6.05 -0.131125
6.06 -0.14132
6.07 -0.151969
6.08 -0.163307
6.09 -0.175824
6.1 -0.189578
6.11 -0.204903
6.12 -0.222052
6.13 -0.240939
6.14 -0.261956
6.15 -0.284823
6.16 -0.309509
6.17 -0.336
6.18 -0.363829
6.19 -0.392866
6.2 -0.422635
6.21 -0.452708
6.22 -0.482587
6.23 -0.511813
6.24 -0.539749
6.25 -0.565892
6.26 -0.589912
6.27 -0.610796
6.28 -0.628674
6.29 -0.64288
6.3 -0.653037
6.31 -0.659389
6.32 -0.661079
6.33 -0.658777
6.34 -0.652417
6.35 -0.641952
6.36 -0.628224
6.37 -0.611176
6.38 -0.591657
6.39 -0.570265
6.4 -0.547504
6.41 -0.524253
6.42 -0.501215
6.43 -0.479121
6.44 -0.458557
6.45 -0.440578
6.46 -0.425311
6.47 -0.41355
6.48 -0.405714
6.49 -0.401665
6.5 -0.402332
6.51 -0.406977
6.52 -0.415707
6.53 -0.428438
6.54 -0.444293
6.55 -0.463199
6.56 -0.484163
6.57 -0.506479
6.58 -0.529381
6.59 -0.551963
6.6 -0.573221
6.61 -0.592343
6.62 -0.608638
6.63 -0.620716
6.64 -0.628588
6.65 -0.631152
6.66 -0.627994
6.67 -0.619334
6.68 -0.603797
6.69 -0.582532
6.7 -0.555213
6.71 -0.521926
6.72 -0.48376
6.73 -0.440472
6.74 -0.393383
6.75 -0.343156
6.76 -0.29043
6.77 -0.236387
6.78 -0.181804
6.79 -0.127624
6.8 -0.074635
6.81 -0.0239117
6.82 0.0242301
6.83 0.068848
6.84 0.109559
6.85 0.146366
6.86 0.178193
6.87 0.205856
6.88 0.229014
6.89 0.247768
6.9 0.262863
6.91 0.274043
6.92 0.282318
6.93 0.28807
6.94 0.29171
6.95 0.294039
6.96 0.295442
6.97 0.296518
6.98 0.297703
6.99 0.299449
7 0.301966
7.01 0.305586
7.02 0.310388
7.03 0.31633
7.04 0.323574
7.05 0.331776
7.06 0.340845
7.07 0.35054
7.08 0.360553
7.09 0.370629
7.1 0.380496
7.11 0.389909
7.12 0.398636
7.13 0.406637
7.14 0.413728
7.15 0.420037
7.16 0.425672
7.17 0.430789
7.18 0.435738
7.19 0.440893
7.2 0.446684
7.21 0.453524
7.22 0.462183
7.23 0.472859
7.24 0.486293
7.25 0.502928
7.26 0.522819
7.27 0.547006
7.28 0.574953
7.29 0.607013
7.3 0.643268
7.31 0.683025
7.32 0.726487
7.33 0.772671
7.34 0.820981
7.35 0.870731
7.36 0.920855
7.37 0.97031
7.38 1.01806
7.39 1.06311
7.4 1.10378
7.41 1.13971
7.42 1.16924
7.43 1.19157
7.44 1.20655
7.45 1.21181
7.46 1.20857
7.47 1.19569
7.48 1.17278
7.49 1.14099
7.5 1.09891
7.51 1.04839
7.52 0.989706
7.53 0.923072
7.54 0.850397
7.55 0.771837
7.56 0.68906
7.57 0.603244
7.58 0.515331
7.59 0.42678
7.6 0.33872
7.61 0.252248
7.62 0.168175
7.63 0.0880097
7.64 0.0118193
7.65 -0.059355
7.66 -0.124975
7.67 -0.185301
7.68 -0.239057
7.69 -0.287194
7.7 -0.329471
7.71 -0.365737
7.72 -0.397003
7.73 -0.42281
7.74 -0.44415
7.75 -0.461441
7.76 -0.474716
7.77 -0.484989
7.78 -0.49228
7.79 -0.497158
7.8 -0.500063
7.81 -0.500968
7.82 -0.500414
7.83 -0.49839
7.84 -0.495009
7.85 -0.490435
7.86 -0.484413
7.87 -0.477143
7.88 -0.468467
7.89 -0.458245
7.9 -0.446596
7.91 -0.433204
7.92 -0.418258
7.93 -0.401748
7.94 -0.383597
7.95 -0.364148
7.96 -0.343405
7.97 -0.321709
7.98 -0.299375
7.99 -0.276704
8 -0.254131
8.01 -0.232116
8.02 -0.211113
8.03 -0.191449
8.04 -0.173956
8.05 -0.158664
8.06 -0.146174
8.07 -0.136924
8.08 -0.130819
8.09 -0.128692
8.1 -0.130126
8.11 -0.135283
8.12 -0.144398
8.13 -0.156806
8.14 -0.172766
8.15 -0.191627
8.16 -0.212945
8.17 -0.236517
8.18 -0.261482
8.19 -0.287409
8.2 -0.31363
8.21 -0.339549
8.22 -0.364374
8.23 -0.387703
8.24 -0.408801
8.25 -0.427085
8.26 -0.442408
8.27 -0.453708
8.28 -0.461261
8.29 -0.46462
8.3 -0.463345
8.31 -0.457943
8.32 -0.447728
8.33 -0.433301
8.34 -0.414837
8.35 -0.392138
8.36 -0.366128
8.37 -0.336743
8.38 -0.304608
8.39 -0.270302
8.4 -0.234001
8.41 -0.196526
8.42 -0.158262
8.43 -0.119739
8.44 -0.0814241
8.45 -0.0438969
8.46 -0.00744404
8.47 0.0274815
8.48 0.0604513
8.49 0.0914344
8.5 0.119824
8.51 0.145766
8.52 0.169122
8.53 0.189586
8.54 0.207577
8.55 0.222807
8.56 0.235605
8.57 0.246228
8.58 0.254581
8.59 0.261274
8.6 0.266402
8.61 0.270316
8.62 0.273411
8.63 0.275886
8.64 0.278159
8.65 0.280506
8.66 0.28322
8.67 0.286489
8.68 0.290648
8.69 0.295737
8.7 0.30189
8.71 0.309256
8.72 0.317672
8.73 0.32724
8.74 0.337744
8.75 0.349004
8.76 0.360884
8.77 0.373041
8.78 0.385204
8.79 0.397049
8.8 0.408295
8.81 0.418432
8.82 0.427335
8.83 0.434574
8.84 0.439838
8.85 0.443117
8.86 0.443811
8.87 0.44218
8.88 0.438049
8.89 0.431266
8.9 0.422242
8.91 0.410771
8.92 0.397324
8.93 0.382176
8.94 0.365496
8.95 0.347872
8.96 0.32961
8.97 0.311185
8.98 0.293006
8.99 0.275613
9 0.259258
9.01 0.244424
9.02 0.231425
9.03 0.220307
9.04 0.211657
9.05 0.205162
9.06 0.200974
9.07 0.199112
9.08 0.199142
9.09 0.201115
9.1 0.204477
9.11 0.208872
9.12 0.213915
9.13 0.21906
9.14 0.223779
9.15 0.227589
9.16 0.230063
9.17 0.230449
9.18 0.228681
9.19 0.224125
9.2 0.216539
9.21 0.205999
9.22 0.191728
9.23 0.17435
9.24 0.153658
9.25 0.129712
9.26 0.103096
9.27 0.0736691
9.28 0.0421741
9.29 0.00896161
9.3 -0.0256099
9.31 -0.0609056
9.32 -0.0965149
9.33 -0.131943
9.34 -0.166788
9.35 -0.200527
9.36 -0.233019
9.37 -0.263836
9.38 -0.292856
9.39 -0.32012
9.4 -0.345252
9.41 -0.368686
9.42 -0.390388
9.43 -0.410545
9.44 -0.429554
9.45 -0.447528
9.46 -0.464933
9.47 -0.482061
9.48 -0.49924
9.49 -0.516742
9.5 -0.5349
9.51 -0.553849
9.52 -0.57371
9.53 -0.594659
9.54 -0.616511
9.55 -0.639264
9.56 -0.662667
9.57 -0.686418
9.58 -0.710157
9.59 -0.733468
9.6 -0.755802
9.61 -0.776605
9.62 -0.795516
9.63 -0.811483
9.64 -0.824428
9.65 -0.833625
9.66 -0.838357
9.67 -0.838762
9.68 -0.833681
9.69 -0.823477
9.7 -0.807934
9.71 -0.786408
9.72 -0.759785
9.73 -0.727476
9.74 -0.690121
9.75 -0.648267
9.76 -0.601681
9.77 -0.551639
9.78 -0.498349
9.79 -0.442545
9.8 -0.385084
9.81 -0.326458
9.82 -0.267578
9.83 -0.209138
9.84 -0.151899
9.85 -0.0963463
9.86 -0.0435011
9.87 0.00642318
9.88 0.0528575
9.89 0.095014
9.9 0.133131
9.91 0.166269
9.92 0.194631
9.93 0.218224
9.94 0.236289
9.95 0.249707
9.96 0.257975
9.97 0.26142
9.98 0.260608
9.99 0.254956
10 0.245613
10.01 0.232556
10.02 0.216119
10.03 0.197038
10.04 0.175295
10.05 0.151716
10.06 0.126671
10.07 0.100572
10.08 0.0740074
10.09 0.0474305
10.1 0.0213197
10.11 -0.00388782
10.12 -0.0275719
10.13 -0.0495544
10.14 -0.0691816
10.15 -0.0862008
10.16 -0.100481
10.17 -0.111191
10.18 -0.118734
10.19 -0.122612
10.2 -0.122736
10.21 -0.119462
10.22 -0.112172
10.23 -0.101633
10.24 -0.087847
10.25 -0.070951
10.26 -0.0516569
10.27 -0.0300207
10.28 -0.00678428
10.29 0.0175589
10.3 0.0425039
10.31 0.0674088
10.32 0.0916287
10.33 0.114611
10.34 0.135885
10.35 0.154553
10.36 0.170583
10.37 0.183244
10.38 0.192243
10.39 0.197691
10.4 0.198661
10.41 0.195877
10.42 0.189095
10.43 0.178351
10.44 0.164348
10.45 0.146912
10.46 0.126932
10.47 0.104867
10.48 0.0811874
10.49 0.0567274
10.5 0.0321106
10.51 0.00805317
10.52 -0.01481
10.53 -0.0355364
10.54 -0.053856
10.55 -0.0688639
10.56 -0.0801412
10.57 -0.0876009
10.58 -0.0900417
10.59 -0.0881237
10.6 -0.0812887
10.61 -0.069406
10.62 -0.0530803
10.63 -0.0316453
10.64 -0.00607448
10.65 0.0234825
10.66 0.0568791
10.67 0.0931851
10.68 0.132324
10.69 0.173491
10.7 0.216147
10.71 0.259872
10.72 0.303999
10.73 0.348046
10.74 0.391536
10.75 0.434111
10.76 0.475157
10.77 0.514622
10.78 0.552072
10.79 0.58728
10.8 0.620328
10.81 0.650662
10.82 0.678649
10.83 0.70413
10.84 0.726984
10.85 0.747576
10.86 0.765581
10.87 0.781359
10.88 0.794971
10.89 0.806255
10.9 0.815609
10.91 0.822807
10.92 0.828019
10.93 0.831357
10.94 0.832492
10.95 0.831766
10.96 0.828917
10.97 0.823915
10.98 0.816897
10.99 0.807343
11 0.795604
11.01 0.781423
11.02 0.764624
11.03 0.745449
11.04 0.723402
11.05 0.698808
11.06 0.671593
11.07 0.641519
11.08 0.60901
11.09 0.573752
11.1 0.536043
11.11 0.496064
11.12 0.453616
11.13 0.409241
11.14 0.362878
11.15 0.314785
11.16 0.265298
11.17 0.214382
11.18 0.16252
11.19 0.109863
11.2 0.0566562
11.21 0.00319315
11.22 -0.0502833
11.23 -0.10352
11.24 -0.156263
11.25 -0.208203
11.26 -0.259218
11.27 -0.308896
11.28 -0.357135
11.29 -0.403751
11.3 -0.448298
11.31 -0.490907
11.32 -0.531133
11.33 -0.568919
11.34 -0.6043
11.35 -0.636668
11.36 -0.666444
11.37 -0.693276
11.38 -0.717088
11.39 -0.738155
11.4 -0.755917
11.41 -0.770892
11.42 -0.782952
11.43 -0.791984
11.44 -0.798432
11.45 -0.801951
11.46 -0.802961
11.47 -0.801562
11.48 -0.79761
11.49 -0.791593
11.5 -0.783342
11.51 -0.773114
11.52 -0.761113
11.53 -0.747144
11.54 -0.731622
11.55 -0.714446
11.56 -0.695701
11.57 -0.675582
11.58 -0.653848
11.59 -0.630798
11.6 -0.606354
11.61 -0.580483
11.62 -0.553374
11.63 -0.524834
11.64 -0.49508
11.65 -0.464144
11.66 -0.431995
11.67 -0.398899
11.68 -0.364856
11.69 -0.330101
11.7 -0.294842
11.71 -0.259264
11.72 -0.223668
11.73 -0.188357
11.74 -0.153654
11.75 -0.119815
11.76 -0.0874502
11.77 -0.0566509
11.78 -0.0279282
11.79 -0.0017119
11.8 0.0219607
11.81 0.0422502
11.82 0.0593486
11.83 0.0729146
11.84 0.0824755
11.85 0.088449
11.86 0.0901992
11.87 0.0881258
11.88 0.0823774
11.89 0.0726278
11.9 0.0597027
11.91 0.0434848
11.92 0.0244698
11.93 0.00321637
11.94 -0.0202018
11.95 -0.044952
11.96 -0.0706756
11.97 -0.0968503
11.98 -0.122969
11.99 -0.148453
12 -0.172942
12.01 -0.195961
12.02 -0.217001
12.03 -0.235995
12.04 -0.252289
12.05 -0.265956
12.06 -0.276858
12.07 -0.284583
12.08 -0.289584
12.09 -0.291533
12.1 -0.290725
12.11 -0.287466
12.12 -0.281572
12.13 -0.273735
12.14 -0.264034
12.15 -0.252817
12.16 -0.240528
12.17 -0.22734
12.18 -0.213728
12.19 -0.199974
12.2 -0.186397
12.21 -0.173232
12.22 -0.160823
12.23 -0.149282
12.24 -0.138776
12.25 -0.129535
12.26 -0.121447
12.27 -0.114705
12.28 -0.109178
12.29 -0.10475
12.3 -0.101453
12.31 -0.098945
12.32 -0.0971093
12.33 -0.0956791
12.34 -0.0943735
12.35 -0.0928668
12.36 -0.0908863
12.37 -0.0880605
12.38 -0.084008
12.39 -0.0785543
12.4 -0.0710592
12.41 -0.0614879
12.42 -0.0494871
12.43 -0.0345735
12.44 -0.0169259
12.45 0.00408466
12.46 0.0282832
12.47 0.0556638
12.48 0.086667
12.49 0.120665
12.5 0.157893
12.51 0.197991
12.52 0.240477
12.53 0.285382
12.54 0.331847
12.55 0.379502
12.56 0.427741
12.57 0.475915
12.58 0.523217
12.59 0.569067
12.6 0.612665
12.61 0.65306
12.62 0.68997
12.63 0.722018
12.64 0.749046
12.65 0.770497
12.66 0.785106
12.67 0.793465
12.68 0.794342
12.69 0.787926
12.7 0.774531
12.71 0.75292
12.72 0.724617
12.73 0.689155
12.74 0.646986
12.75 0.599215
12.76 0.545392
12.77 0.487181
12.78 0.425023
12.79 0.359606
12.8 0.292109
12.81 0.223126
12.82 0.153675
12.83 0.0845351
12.84 0.0165863
12.85 -0.0496772
12.86 -0.113344
12.87 -0.174076
12.88 -0.231608
12.89 -0.285087
12.9 -0.334994
12.91 -0.380836
12.92 -0.42275
12.93 -0.461214
12.94 -0.495766
12.95 -0.527399
12.96 -0.556219
12.97 -0.582578
12.98 -0.60715
12.99 -0.630091
13 -0.652024
13.01 -0.673281
13.02 -0.694157
13.03 -0.714946
13.04 -0.735825
13.05 -0.756877
13.06 -0.778097
13.07 -0.799407
13.08 -0.820619
13.09 -0.841442
13.1 -0.861545
13.11 -0.880621
13.12 -0.897939
13.13 -0.913347
13.14 -0.926166
13.15 -0.935855
