# xPDFsuite Configuration #
[PDF]
wavelength = 0.1
dataformat = Qnm
inputfile = A3-Li-TiO2-12h-p2_027.chi
backgroundfile = A2_Bkg-Li_d22-00000.chi
mode = xray
bgscale = 0.91
composition = TiO2
outputtype = gr
qmaxinst = 21.4
qmin = 0.1
qmax = 21.4
rmax = 100.0
rmin = 0.0
rstep = 0.01
rpoly = 0.9

[Misc]
inputdir = D:/APS_March_2019/Run3/Processed-Data/A3-Li-TiO2-12h-p2/chi-files
savedir = D:/APS_March_2019/Run3/Processed-Data/A3-Li-TiO2-12h-p2
backgroundfilefull = D:/APS_March_2019/Calib-Bkg/A2_Bkg-Li_d22-00000.chi

#### start data
#S 1
#L r($\AA$)  G($\AA^{-2}$)
0 0
0.01 -0.000435632
0.02 -0.000852301
0.03 -0.00122984
0.04 -0.00154935
0.05 -0.00180385
0.06 -0.00196824
0.07 -0.00204723
0.08 -0.00203428
0.09 -0.00192257
0.1 -0.00172944
0.11 -0.00145136
0.12 -0.00110832
0.13 -0.000716169
0.14 -0.000288818
0.15 0.000148794
0.16 0.000574659
0.17 0.000965349
0.18 0.00130144
0.19 0.00154364
0.2 0.00168473
0.21 0.00169007
0.22 0.00153358
0.23 0.00121079
0.24 0.000662779
0.25 -9.76647e-05
0.26 -0.00110179
0.27 -0.00238479
0.28 -0.00392653
0.29 -0.00578464
0.3 -0.0079333
0.31 -0.0103727
0.32 -0.0131285
0.33 -0.0161363
0.34 -0.0193959
0.35 -0.0228423
0.36 -0.0264018
0.37 -0.0299878
0.38 -0.0334836
0.39 -0.0367304
0.4 -0.039549
0.41 -0.0417965
0.42 -0.0430816
0.43 -0.0433077
0.44 -0.0421166
0.45 -0.0391161
0.46 -0.0342245
0.47 -0.0267352
0.48 -0.0166382
0.49 -0.00359569
0.5 0.0130019
0.51 0.032886
0.52 0.0567543
0.53 0.0844406
0.54 0.115837
0.55 0.151472
0.56 0.190509
0.57 0.233071
0.58 0.278658
0.59 0.326527
0.6 0.376391
0.61 0.427132
0.62 0.47793
0.63 0.527713
0.64 0.575581
0.65 0.619835
0.66 0.659762
0.67 0.694025
0.68 0.720825
0.69 0.740067
0.7 0.749367
0.71 0.748638
0.72 0.737345
0.73 0.71332
0.74 0.678161
0.75 0.630276
0.76 0.570301
0.77 0.499494
0.78 0.416498
0.79 0.324399
0.8 0.223541
0.81 0.115427
0.82 0.00241309
0.83 -0.114217
0.84 -0.231868
0.85 -0.348448
0.86 -0.461456
0.87 -0.56926
0.88 -0.6686
0.89 -0.758332
0.9 -0.836779
0.91 -0.900827
0.92 -0.951422
0.93 -0.985751
0.94 -1.00421
0.95 -1.00762
0.96 -0.99366
0.97 -0.966019
0.98 -0.924411
0.99 -0.870572
1 -0.807461
1.01 -0.735807
1.02 -0.659443
1.03 -0.580672
1.04 -0.502356
1.05 -0.427029
1.06 -0.35827
1.07 -0.297844
1.08 -0.248079
1.09 -0.212286
1.1 -0.190021
1.11 -0.184546
1.12 -0.195366
1.13 -0.221975
1.14 -0.266509
1.15 -0.325207
1.16 -0.398303
1.17 -0.48355
1.18 -0.577791
1.19 -0.679831
1.2 -0.785453
1.21 -0.891903
1.22 -0.995811
1.23 -1.09452
1.24 -1.1836
1.25 -1.26149
1.26 -1.32541
1.27 -1.37183
1.28 -1.40153
1.29 -1.41064
1.3 -1.40035
1.31 -1.37115
1.32 -1.32105
1.33 -1.25444
1.34 -1.17107
1.35 -1.07386
1.36 -0.966323
1.37 -0.849905
1.38 -0.729354
1.39 -0.607689
1.4 -0.488552
1.41 -0.374798
1.42 -0.271179
1.43 -0.179096
1.44 -0.101587
1.45 -0.0419093
1.46 0.000738539
1.47 0.0224281
1.48 0.0248754
1.49 0.00843215
1.5 -0.0283264
1.51 -0.0810451
1.52 -0.149873
1.53 -0.231529
1.54 -0.322705
1.55 -0.421616
1.56 -0.523824
1.57 -0.626321
1.58 -0.725661
1.59 -0.819253
1.6 -0.902491
1.61 -0.974451
1.62 -1.03218
1.63 -1.07304
1.64 -1.09783
1.65 -1.10285
1.66 -1.09012
1.67 -1.05971
1.68 -1.01055
1.69 -0.94645
1.7 -0.866903
1.71 -0.774884
1.72 -0.672921
1.73 -0.562001
1.74 -0.445858
1.75 -0.326287
1.76 -0.20569
1.77 -0.0860625
1.78 0.0301984
1.79 0.142134
1.8 0.248134
1.81 0.347009
1.82 0.439014
1.83 0.52259
1.84 0.598878
1.85 0.667986
1.86 0.729879
1.87 0.786202
1.88 0.836975
1.89 0.88352
1.9 0.92673
1.91 0.966957
1.92 1.00524
1.93 1.04176
1.94 1.07675
1.95 1.11028
1.96 1.14164
1.97 1.17066
1.98 1.19626
1.99 1.21729
2 1.23313
2.01 1.24127
2.02 1.24147
2.03 1.23208
2.04 1.21104
2.05 1.17884
2.06 1.13268
2.07 1.07332
2.08 1.00068
2.09 0.913187
2.1 0.813556
2.11 0.701114
2.12 0.577851
2.13 0.445995
2.14 0.306299
2.15 0.162338
2.16 0.0162274
2.17 -0.129221
2.18 -0.271564
2.19 -0.407
2.2 -0.534061
2.21 -0.64985
2.22 -0.751474
2.23 -0.838992
2.24 -0.908423
2.25 -0.960908
2.26 -0.995932
2.27 -1.0117
2.28 -1.01156
2.29 -0.994357
2.3 -0.962797
2.31 -0.919344
2.32 -0.864619
2.33 -0.80291
2.34 -0.736176
2.35 -0.667387
2.36 -0.599241
2.37 -0.534995
2.38 -0.476378
2.39 -0.425991
2.4 -0.386087
2.41 -0.356795
2.42 -0.341175
2.43 -0.337996
2.44 -0.347602
2.45 -0.370682
2.46 -0.404576
2.47 -0.449557
2.48 -0.503087
2.49 -0.563117
2.5 -0.628197
2.51 -0.695365
2.52 -0.762472
2.53 -0.827164
2.54 -0.887655
2.55 -0.940696
2.56 -0.985895
2.57 -1.02103
2.58 -1.04469
2.59 -1.05736
2.6 -1.05645
2.61 -1.0438
2.62 -1.01918
2.63 -0.982351
2.64 -0.935691
2.65 -0.878793
2.66 -0.813896
2.67 -0.7424
2.68 -0.665042
2.69 -0.584064
2.7 -0.500411
2.71 -0.415493
2.72 -0.330416
2.73 -0.246233
2.74 -0.163503
2.75 -0.082904
2.76 -0.00478016
2.77 0.0709934
2.78 0.143994
2.79 0.214831
2.8 0.283656
2.81 0.350736
2.82 0.41663
2.83 0.481518
2.84 0.545789
2.85 0.609609
2.86 0.67297
2.87 0.735827
2.88 0.797782
2.89 0.858407
2.9 0.917159
2.91 0.972769
2.92 1.02483
2.93 1.07182
2.94 1.11263
2.95 1.14675
2.96 1.17142
2.97 1.18718
2.98 1.19236
2.99 1.18567
3 1.16792
3.01 1.13666
3.02 1.09346
3.03 1.03819
3.04 0.970202
3.05 0.891913
3.06 0.802801
3.07 0.704942
3.08 0.599946
3.09 0.488541
3.1 0.373387
3.11 0.255878
3.12 0.137955
3.13 0.0212743
3.14 -0.0918743
3.15 -0.200573
3.16 -0.302976
3.17 -0.397631
3.18 -0.484426
3.19 -0.560947
3.2 -0.628067
3.21 -0.685091
3.22 -0.731127
3.23 -0.767693
3.24 -0.793534
3.25 -0.810057
3.26 -0.817881
3.27 -0.816495
3.28 -0.807885
3.29 -0.791717
3.3 -0.768925
3.31 -0.74043
3.32 -0.705637
3.33 -0.665968
3.34 -0.621155
3.35 -0.571335
3.36 -0.517089
3.37 -0.457535
3.38 -0.393457
3.39 -0.324542
3.4 -0.250476
3.41 -0.171913
3.42 -0.0881973
3.43 -9.79691e-05
3.44 0.0920577
3.45 0.188166
3.46 0.287004
3.47 0.388034
3.48 0.490063
3.49 0.591922
3.5 0.692016
3.51 0.789218
3.52 0.881597
3.53 0.967539
3.54 1.04619
3.55 1.11422
3.56 1.17198
3.57 1.21743
3.58 1.24886
3.59 1.26713
3.6 1.26918
3.61 1.25671
3.62 1.22947
3.63 1.1864
3.64 1.13031
3.65 1.06026
3.66 0.978556
3.67 0.886966
3.68 0.785857
3.69 0.678483
3.7 0.566043
3.71 0.450674
3.72 0.334359
3.73 0.219067
3.74 0.106271
3.75 -0.00228622
3.76 -0.105113
3.77 -0.201851
3.78 -0.290436
3.79 -0.371475
3.8 -0.444453
3.81 -0.508761
3.82 -0.56579
3.83 -0.6149
3.84 -0.657475
3.85 -0.694383
3.86 -0.725848
3.87 -0.753587
3.88 -0.778067
3.89 -0.800312
3.9 -0.821186
3.91 -0.841163
3.92 -0.860866
3.93 -0.880565
3.94 -0.900382
3.95 -0.920246
3.96 -0.939875
3.97 -0.958907
3.98 -0.976774
3.99 -0.99271
4 -1.0063
4.01 -1.01633
4.02 -1.02247
4.03 -1.02411
4.04 -1.02013
4.05 -1.01096
4.06 -0.99563
4.07 -0.974453
4.08 -0.947891
4.09 -0.91542
4.1 -0.878579
4.11 -0.837657
4.12 -0.793654
4.13 -0.747827
4.14 -0.701146
4.15 -0.654929
4.16 -0.610399
4.17 -0.568876
4.18 -0.531001
4.19 -0.498477
4.2 -0.471403
4.21 -0.450386
4.22 -0.436354
4.23 -0.428369
4.24 -0.427082
4.25 -0.431494
4.26 -0.440692
4.27 -0.454304
4.28 -0.470485
4.29 -0.488148
4.3 -0.505742
4.31 -0.521895
4.32 -0.53447
4.33 -0.542651
4.34 -0.544656
4.35 -0.53899
4.36 -0.525529
4.37 -0.501867
4.38 -0.468832
4.39 -0.425841
4.4 -0.372112
4.41 -0.309377
4.42 -0.23688
4.43 -0.156385
4.44 -0.0691259
4.45 0.0243132
4.46 0.121533
4.47 0.221305
4.48 0.32177
4.49 0.421297
4.5 0.517705
4.51 0.609965
4.52 0.696153
4.53 0.774801
4.54 0.845642
4.55 0.906076
4.56 0.956989
4.57 0.997467
4.58 1.02665
4.59 1.04601
4.6 1.05423
4.61 1.05296
4.62 1.04287
4.63 1.02384
4.64 0.99808
4.65 0.965762
4.66 0.928352
4.67 0.887154
4.68 0.84274
4.69 0.79666
4.7 0.749719
4.71 0.702854
4.72 0.656788
4.73 0.612486
4.74 0.570227
4.75 0.53061
4.76 0.494141
4.77 0.460689
4.78 0.430978
4.79 0.404654
4.8 0.381785
4.81 0.362688
4.82 0.346755
4.83 0.334338
4.84 0.325041
4.85 0.318588
4.86 0.315225
4.87 0.314258
4.88 0.315746
4.89 0.319381
4.9 0.324723
4.91 0.33178
4.92 0.339915
4.93 0.348842
4.94 0.35813
4.95 0.367301
4.96 0.375745
4.97 0.383009
4.98 0.388488
4.99 0.391368
5 0.391424
5.01 0.387546
5.02 0.379501
5.03 0.366888
5.04 0.348545
5.05 0.325011
5.06 0.295348
5.07 0.25966
5.08 0.218408
5.09 0.170664
5.1 0.117883
5.11 0.0600545
5.12 -0.0022024
5.13 -0.0676923
5.14 -0.13597
5.15 -0.205595
5.16 -0.27552
5.17 -0.34446
5.18 -0.411386
5.19 -0.474597
5.2 -0.533276
5.21 -0.586385
5.22 -0.632099
5.23 -0.670677
5.24 -0.700368
5.25 -0.721104
5.26 -0.733099
5.27 -0.734609
5.28 -0.72749
5.29 -0.711104
5.3 -0.686008
5.31 -0.653674
5.32 -0.613609
5.33 -0.568025
5.34 -0.517622
5.35 -0.463416
5.36 -0.40699
5.37 -0.349308
5.38 -0.29169
5.39 -0.235206
5.4 -0.18111
5.41 -0.129923
5.42 -0.0828992
5.43 -0.0403766
5.44 -0.00259063
5.45 0.0293492
5.46 0.0562668
5.47 0.07759
5.48 0.0935967
5.49 0.105019
5.5 0.111327
5.51 0.113863
5.52 0.112807
5.53 0.108619
5.54 0.10216
5.55 0.0936045
5.56 0.0837108
5.57 0.0728592
5.58 0.0613695
5.59 0.0496069
5.6 0.0377601
5.61 0.0259747
5.62 0.0143101
5.63 0.00278303
5.64 -0.00867773
5.65 -0.0201609
5.66 -0.0317834
5.67 -0.0436446
5.68 -0.0559235
5.69 -0.068629
5.7 -0.0818469
5.71 -0.0955779
5.72 -0.109709
5.73 -0.124164
5.74 -0.138702
5.75 -0.153067
5.76 -0.166896
5.77 -0.17991
5.78 -0.191515
5.79 -0.201413
5.8 -0.209196
5.81 -0.214107
5.82 -0.216184
5.83 -0.21465
5.84 -0.209373
5.85 -0.200365
5.86 -0.186752
5.87 -0.16926
5.88 -0.147508
5.89 -0.121644
5.9 -0.0922879
5.91 -0.0591104
5.92 -0.0231236
5.93 0.0153762
5.94 0.0559296
5.95 0.0977347
5.96 0.140313
5.97 0.182943
5.98 0.225021
5.99 0.26581
6 0.304946
6.01 0.341621
6.02 0.375521
6.03 0.406394
6.04 0.433357
6.05 0.456802
6.06 0.476133
6.07 0.491313
6.08 0.502688
6.09 0.509484
6.1 0.51258
6.11 0.511805
6.12 0.507218
6.13 0.499456
6.14 0.48821
6.15 0.474185
6.16 0.457574
6.17 0.438454
6.18 0.417435
6.19 0.394533
6.2 0.370188
6.21 0.344706
6.22 0.318237
6.23 0.291202
6.24 0.263819
6.25 0.236384
6.26 0.209154
6.27 0.182496
6.28 0.156574
6.29 0.131726
6.3 0.108249
6.31 0.0862203
6.32 0.0661834
6.33 0.0480531
6.34 0.0320785
6.35 0.0185566
6.36 0.0072494
6.37 -0.00144489
6.38 -0.00780666
6.39 -0.0119466
6.4 -0.0137503
6.41 -0.0137761
6.42 -0.0120791
6.43 -0.00908698
6.44 -0.00523563
6.45 -0.000857798
6.46 0.00351884
6.47 0.00742166
6.48 0.0103623
6.49 0.0120266
6.5 0.0116754
6.51 0.00926777
6.52 0.00438478
6.53 -0.00334465
6.54 -0.0136941
6.55 -0.0271503
6.56 -0.0432924
6.57 -0.0619634
6.58 -0.0831264
6.59 -0.106062
6.6 -0.130518
6.61 -0.155845
6.62 -0.181438
6.63 -0.206603
6.64 -0.23077
6.65 -0.253146
6.66 -0.273098
6.67 -0.290316
6.68 -0.30361
6.69 -0.313229
6.7 -0.318553
6.71 -0.319195
6.72 -0.315609
6.73 -0.307069
6.74 -0.294364
6.75 -0.277678
6.76 -0.257086
6.77 -0.233599
6.78 -0.207415
6.79 -0.179406
6.8 -0.150284
6.81 -0.120696
6.82 -0.0913997
6.83 -0.0631471
6.84 -0.0365651
6.85 -0.0120369
6.86 0.00942697
6.87 0.0279934
6.88 0.0431047
6.89 0.0545104
6.9 0.0625574
6.91 0.0666652
6.92 0.0675431
6.93 0.0653032
6.94 0.0600735
6.95 0.0526138
6.96 0.0430462
6.97 0.0320399
6.98 0.0200674
6.99 0.00752898
7 -0.00506469
7.01 -0.0172941
7.02 -0.0288118
7.03 -0.0393901
7.04 -0.0485744
7.05 -0.0564385
7.06 -0.0627347
7.07 -0.0674022
7.08 -0.0706019
7.09 -0.0720803
7.1 -0.0721654
7.11 -0.0708498
7.12 -0.0681383
7.13 -0.0642677
7.14 -0.0590881
7.15 -0.0527575
7.16 -0.0452494
7.17 -0.0363567
7.18 -0.0261787
7.19 -0.0143688
7.2 -0.000841357
7.21 0.0145122
7.22 0.0322676
7.23 0.0522453
7.24 0.0749198
7.25 0.10045
7.26 0.128696
7.27 0.160324
7.28 0.19477
7.29 0.232175
7.3 0.272474
7.31 0.315085
7.32 0.36001
7.33 0.406505
7.34 0.454072
7.35 0.502125
7.36 0.549948
7.37 0.596713
7.38 0.641743
7.39 0.684394
7.4 0.723472
7.41 0.758896
7.42 0.789584
7.43 0.815142
7.44 0.835637
7.45 0.849654
7.46 0.858215
7.47 0.860808
7.48 0.857449
7.49 0.84905
7.5 0.835128
7.51 0.816972
7.52 0.795033
7.53 0.769792
7.54 0.742396
7.55 0.713361
7.56 0.683625
7.57 0.653914
7.58 0.625015
7.59 0.597396
7.6 0.571767
7.61 0.548446
7.62 0.527519
7.63 0.509598
7.64 0.494146
7.65 0.481255
7.66 0.470636
7.67 0.461684
7.68 0.454135
7.69 0.447194
7.7 0.440255
7.71 0.43258
7.72 0.423618
7.73 0.412405
7.74 0.398565
7.75 0.381572
7.76 0.360553
7.77 0.335763
7.78 0.306429
7.79 0.272726
7.8 0.23492
7.81 0.192488
7.82 0.146489
7.83 0.0969466
7.84 0.0444334
7.85 -0.0102236
7.86 -0.0666932
7.87 -0.123985
7.88 -0.181448
7.89 -0.23832
7.9 -0.294026
7.91 -0.347631
7.92 -0.398815
7.93 -0.447055
7.94 -0.491613
7.95 -0.532711
7.96 -0.569607
7.97 -0.602517
7.98 -0.631583
7.99 -0.656314
8 -0.677574
8.01 -0.695195
8.02 -0.709587
8.03 -0.721343
8.04 -0.730326
8.05 -0.737403
8.06 -0.742759
8.07 -0.746723
8.08 -0.74974
8.09 -0.751945
8.1 -0.753666
8.11 -0.755048
8.12 -0.756183
8.13 -0.757154
8.14 -0.757927
8.15 -0.758466
8.16 -0.758683
8.17 -0.75838
8.18 -0.757481
8.19 -0.755715
8.2 -0.752921
8.21 -0.748994
8.22 -0.743489
8.23 -0.736511
8.24 -0.72775
8.25 -0.717049
8.26 -0.704508
8.27 -0.689666
8.28 -0.672815
8.29 -0.653817
8.3 -0.632532
8.31 -0.60926
8.32 -0.583703
8.33 -0.55615
8.34 -0.526665
8.35 -0.495097
8.36 -0.461832
8.37 -0.426725
8.38 -0.389981
8.39 -0.351786
8.4 -0.312013
8.41 -0.271047
8.42 -0.228895
8.43 -0.185725
8.44 -0.141789
8.45 -0.0971509
8.46 -0.0521316
8.47 -0.00693131
8.48 0.0381882
8.49 0.0829858
8.5 0.127081
8.51 0.170263
8.52 0.212226
8.53 0.25251
8.54 0.291072
8.55 0.327351
8.56 0.361251
8.57 0.392655
8.58 0.420949
8.59 0.446499
8.6 0.46888
8.61 0.488128
8.62 0.504537
8.63 0.517587
8.64 0.528002
8.65 0.535725
8.66 0.540922
8.67 0.54412
8.68 0.545275
8.69 0.544966
8.7 0.543447
8.71 0.540954
8.72 0.537888
8.73 0.534439
8.74 0.530862
8.75 0.527322
8.76 0.523956
8.77 0.520796
8.78 0.517871
8.79 0.515114
8.8 0.512416
8.81 0.509611
8.82 0.506535
8.83 0.502943
8.84 0.498592
8.85 0.493352
8.86 0.486806
8.87 0.478967
8.88 0.469633
8.89 0.458612
8.9 0.44609
8.91 0.431867
8.92 0.416231
8.93 0.39937
8.94 0.381425
8.95 0.362864
8.96 0.344009
8.97 0.325307
8.98 0.307168
8.99 0.290236
9 0.274752
9.01 0.261326
9.02 0.250365
9.03 0.241944
9.04 0.236902
9.05 0.234873
9.06 0.236155
9.07 0.240895
9.08 0.248575
9.09 0.259468
9.1 0.272886
9.11 0.288471
9.12 0.305916
9.13 0.324443
9.14 0.343584
9.15 0.362676
9.16 0.381151
9.17 0.398229
9.18 0.413601
9.19 0.426548
9.2 0.436682
9.21 0.443945
9.22 0.447434
9.23 0.447678
9.24 0.444363
9.25 0.437454
9.26 0.427511
9.27 0.414262
9.28 0.398467
9.29 0.380426
9.3 0.360414
9.31 0.339116
9.32 0.316816
9.33 0.294025
9.34 0.271117
9.35 0.248444
9.36 0.226215
9.37 0.204664
9.38 0.183855
9.39 0.163727
9.4 0.144305
9.41 0.125289
9.42 0.106461
9.43 0.0874908
9.44 0.0680612
9.45 0.0476348
9.46 0.0259691
9.47 0.00263417
9.48 -0.0228576
9.49 -0.0505038
9.5 -0.0809037
9.51 -0.113913
9.52 -0.149545
9.53 -0.188046
9.54 -0.228819
9.55 -0.27187
9.56 -0.316682
9.57 -0.36271
9.58 -0.40953
9.59 -0.456414
9.6 -0.502697
9.61 -0.547674
9.62 -0.590859
9.63 -0.631132
9.64 -0.668373
9.65 -0.701862
9.66 -0.730934
9.67 -0.755803
9.68 -0.775473
9.69 -0.790432
9.7 -0.800642
9.71 -0.805738
9.72 -0.806674
9.73 -0.803206
9.74 -0.796064
9.75 -0.785872
9.76 -0.772752
9.77 -0.757735
9.78 -0.741197
9.79 -0.723759
9.8 -0.705992
9.81 -0.6884
9.82 -0.671365
9.83 -0.655269
9.84 -0.640419
9.85 -0.62683
9.86 -0.614818
9.87 -0.604166
9.88 -0.59482
9.89 -0.586714
9.9 -0.57947
9.91 -0.572932
9.92 -0.566746
9.93 -0.560618
9.94 -0.554219
9.95 -0.547328
9.96 -0.539634
9.97 -0.530969
9.98 -0.521284
9.99 -0.510281
10 -0.498181
10.01 -0.48493
10.02 -0.470624
10.03 -0.455518
10.04 -0.439684
10.05 -0.423446
10.06 -0.407012
10.07 -0.390619
10.08 -0.374463
10.09 -0.35878
10.1 -0.343657
10.11 -0.329163
10.12 -0.315393
10.13 -0.302183
10.14 -0.289473
10.15 -0.277033
10.16 -0.264607
10.17 -0.251824
10.18 -0.238396
10.19 -0.223851
10.2 -0.207766
10.21 -0.189926
10.22 -0.169534
10.23 -0.146662
10.24 -0.120878
10.25 -0.0918075
10.26 -0.0597389
10.27 -0.0241281
10.28 0.014543
10.29 0.0561137
10.3 0.100571
10.31 0.147126
10.32 0.195556
10.33 0.24516
10.34 0.295296
10.35 0.345272
10.36 0.394434
10.37 0.441956
10.38 0.487143
10.39 0.529611
10.4 0.568074
10.41 0.602704
10.42 0.632758
10.43 0.657709
10.44 0.677932
10.45 0.692433
10.46 0.701942
10.47 0.706444
10.48 0.705724
10.49 0.70079
10.5 0.691419
10.51 0.678431
10.52 0.662412
10.53 0.643518
10.54 0.62273
10.55 0.600376
10.56 0.57704
10.57 0.553242
10.58 0.529392
10.59 0.50586
10.6 0.482972
10.61 0.460981
10.62 0.439936
10.63 0.420111
10.64 0.40135
10.65 0.383654
10.66 0.367001
10.67 0.35113
10.68 0.335995
10.69 0.321352
10.7 0.30703
10.71 0.292884
10.72 0.278753
10.73 0.264518
10.74 0.250108
10.75 0.235503
10.76 0.22068
10.77 0.205732
10.78 0.19075
10.79 0.175883
10.8 0.16128
10.81 0.14723
10.82 0.133864
10.83 0.121451
10.84 0.110294
10.85 0.100444
10.86 0.0923546
10.87 0.0860073
10.88 0.081547
10.89 0.0793019
10.9 0.0790112
10.91 0.0809748
10.92 0.0850216
10.93 0.090983
10.94 0.0990547
10.95 0.108741
10.96 0.120035
10.97 0.13269
10.98 0.146364
10.99 0.160968
11 0.176084
11.01 0.191481
11.02 0.206877
11.03 0.222017
11.04 0.236553
11.05 0.250303
11.06 0.263009
11.07 0.274312
11.08 0.284189
11.09 0.292188
11.1 0.29825
11.11 0.302255
11.12 0.30368
11.13 0.30277
11.14 0.299066
11.15 0.292498
11.16 0.283187
11.17 0.270409
11.18 0.254694
11.19 0.235694
11.2 0.213296
11.21 0.187866
11.22 0.158866
11.23 0.12687
11.24 0.0918798
11.25 0.053856
11.26 0.0134056
11.27 -0.029564
11.28 -0.0744944
11.29 -0.121008
11.3 -0.168856
11.31 -0.217414
11.32 -0.266283
11.33 -0.314955
11.34 -0.362993
11.35 -0.409708
11.36 -0.454878
11.37 -0.497897
11.38 -0.538335
11.39 -0.576134
11.4 -0.610427
11.41 -0.641531
11.42 -0.66911
11.43 -0.692869
11.44 -0.713271
11.45 -0.729811
11.46 -0.743035
11.47 -0.753115
11.48 -0.759955
11.49 -0.764288
11.5 -0.766083
11.51 -0.765815
11.52 -0.763887
11.53 -0.760362
11.54 -0.755777
11.55 -0.750262
11.56 -0.744035
11.57 -0.737301
11.58 -0.730061
11.59 -0.722432
11.6 -0.714357
11.61 -0.705731
11.62 -0.696502
11.63 -0.686365
11.64 -0.675236
11.65 -0.662883
11.66 -0.648941
11.67 -0.633426
11.68 -0.615888
11.69 -0.596315
11.7 -0.574669
11.71 -0.550553
11.72 -0.524358
11.73 -0.495894
11.74 -0.465355
11.75 -0.433095
11.76 -0.399044
11.77 -0.363827
11.78 -0.327688
11.79 -0.291019
11.8 -0.254259
11.81 -0.217868
11.82 -0.182201
11.83 -0.147662
11.84 -0.114724
11.85 -0.0834623
11.86 -0.0544147
11.87 -0.0275583
11.88 -0.00295399
11.89 0.0190559
11.9 0.0389084
11.91 0.056437
11.92 0.0719199
11.93 0.0857075
11.94 0.0977799
11.95 0.108721
11.96 0.118722
11.97 0.128096
11.98 0.137172
11.99 0.146181
12 0.155338
12.01 0.164796
12.02 0.174665
12.03 0.184907
12.04 0.195517
12.05 0.20632
12.06 0.217124
12.07 0.227632
12.08 0.237588
12.09 0.246532
12.1 0.254137
12.11 0.260115
12.12 0.263739
12.13 0.265059
12.14 0.263495
12.15 0.258802
12.16 0.251101
12.17 0.239638
12.18 0.225006
12.19 0.207037
12.2 0.185747
12.21 0.161751
12.22 0.134928
12.23 0.106011
12.24 0.0754045
12.25 0.0434945
12.26 0.0109682
12.27 -0.0216733
12.28 -0.0538683
12.29 -0.0851389
12.3 -0.114773
12.31 -0.142603
12.32 -0.168007
12.33 -0.190713
12.34 -0.21073
12.35 -0.227272
12.36 -0.24087
12.37 -0.251231
12.38 -0.25832
12.39 -0.262599
12.4 -0.26372
12.41 -0.262304
12.42 -0.258481
12.43 -0.252318
12.44 -0.244355
12.45 -0.234561
12.46 -0.223318
12.47 -0.21084
12.48 -0.197138
12.49 -0.18253
12.5 -0.167001
12.51 -0.150662
12.52 -0.133614
12.53 -0.11575
12.54 -0.0972309
12.55 -0.078011
12.56 -0.0581149
12.57 -0.0376592
12.58 -0.0166278
12.59 0.00477646
12.6 0.0264123
12.61 0.0480642
12.62 0.0694865
12.63 0.0902933
12.64 0.110194
12.65 0.128817
12.66 0.145538
12.67 0.160227
12.68 0.172132
12.69 0.180981
12.7 0.186587
12.71 0.187969
12.72 0.185567
12.73 0.178759
12.74 0.167455
12.75 0.152078
12.76 0.1319
12.77 0.107903
12.78 0.0801291
12.79 0.0488477
12.8 0.0149516
12.81 -0.0213559
12.82 -0.0591347
12.83 -0.0977261
12.84 -0.136402
12.85 -0.17445
12.86 -0.211001
12.87 -0.24547
12.88 -0.277362
12.89 -0.305643
12.9 -0.330468
12.91 -0.351077
12.92 -0.367337
12.93 -0.379543
12.94 -0.386854
12.95 -0.390272
12.96 -0.389704
12.97 -0.3854
12.98 -0.378176
12.99 -0.368044
13 -0.355913
13.01 -0.342252
13.02 -0.327526
13.03 -0.312364
13.04 -0.297208
13.05 -0.282463
13.06 -0.268423
13.07 -0.255448
13.08 -0.243496
13.09 -0.232723
13.1 -0.223008
13.11 -0.214116
13.12 -0.205909
13.13 -0.19795
13.14 -0.189873
13.15 -0.181233
13.16 -0.171688
13.17 -0.160562
13.18 -0.147691
13.19 -0.132643
