# xPDFsuite Configuration #
[PDF]
wavelength = 0.1
dataformat = Qnm
inputfile = A3-Li-TiO2-12h-p2_032.chi
backgroundfile = A2_Bkg-Li_d22-00000.chi
mode = xray
bgscale = 0.91
composition = TiO2
outputtype = gr
qmaxinst = 21.4
qmin = 0.1
qmax = 21.4
rmax = 100.0
rmin = 0.0
rstep = 0.01
rpoly = 0.9

[Misc]
inputdir = D:/APS_March_2019/Run3/Processed-Data/A3-Li-TiO2-12h-p2/chi-files
savedir = D:/APS_March_2019/Run3/Processed-Data/A3-Li-TiO2-12h-p2
backgroundfilefull = D:/APS_March_2019/Calib-Bkg/A2_Bkg-Li_d22-00000.chi

#### start data
#S 1
#L r($\AA$)  G($\AA^{-2}$)
0 0
0.01 -0.000267607
0.02 -0.000523568
0.03 -0.000755501
0.04 -0.000951788
0.05 -0.00110815
0.06 -0.00120913
0.07 -0.00125762
0.08 -0.00124955
0.09 -0.00118065
0.1 -0.00106156
0.11 -0.000890065
0.12 -0.000678536
0.13 -0.000436958
0.14 -0.00017449
0.15 9.27572e-05
0.16 0.000349411
0.17 0.000578834
0.18 0.000766508
0.19 0.000881396
0.2 0.000916063
0.21 0.00083994
0.22 0.000627444
0.23 0.000270223
0.24 -0.000289901
0.25 -0.00104781
0.26 -0.00203926
0.27 -0.00330519
0.28 -0.00483149
0.29 -0.00668171
0.3 -0.00883287
0.31 -0.0112865
0.32 -0.0140679
0.33 -0.0171063
0.34 -0.0203922
0.35 -0.0238471
0.36 -0.0273812
0.37 -0.0308759
0.38 -0.0341994
0.39 -0.0371528
0.4 -0.0395237
0.41 -0.0411531
0.42 -0.0415751
0.43 -0.0407032
0.44 -0.0381357
0.45 -0.0334465
0.46 -0.0265799
0.47 -0.0167782
0.48 -0.00408399
0.49 0.0118187
0.5 0.0315181
0.51 0.0546551
0.52 0.0818662
0.53 0.112883
0.54 0.147497
0.55 0.186077
0.56 0.227701
0.57 0.272302
0.58 0.319242
0.59 0.36771
0.6 0.417092
0.61 0.46634
0.62 0.514438
0.63 0.560191
0.64 0.602796
0.65 0.640302
0.66 0.672211
0.67 0.697202
0.68 0.713486
0.69 0.721269
0.7 0.718228
0.71 0.704584
0.72 0.680065
0.73 0.642797
0.74 0.59469
0.75 0.534543
0.76 0.463318
0.77 0.382511
0.78 0.291395
0.79 0.193015
0.8 0.0881648
0.81 -0.0214039
0.82 -0.133454
0.83 -0.246123
0.84 -0.357241
0.85 -0.46464
0.86 -0.565794
0.87 -0.659606
0.88 -0.742775
0.89 -0.814735
0.9 -0.874209
0.91 -0.918456
0.92 -0.949018
0.93 -0.963606
0.94 -0.96313
0.95 -0.948852
0.96 -0.919241
0.97 -0.878062
0.98 -0.825656
0.99 -0.764069
1 -0.696168
1.01 -0.623438
1.02 -0.549133
1.03 -0.475689
1.04 -0.405919
1.05 -0.341707
1.06 -0.286645
1.07 -0.241732
1.08 -0.208798
1.09 -0.190633
1.1 -0.186088
1.11 -0.197745
1.12 -0.22451
1.13 -0.265363
1.14 -0.321533
1.15 -0.389217
1.16 -0.467931
1.17 -0.5552
1.18 -0.64803
1.19 -0.74443
1.2 -0.841003
1.21 -0.934899
1.22 -1.02299
1.23 -1.1034
1.24 -1.17182
1.25 -1.22764
1.26 -1.2687
1.27 -1.29217
1.28 -1.29955
1.29 -1.28785
1.3 -1.25884
1.31 -1.21354
1.32 -1.15097
1.33 -1.07539
1.34 -0.987335
1.35 -0.889792
1.36 -0.785988
1.37 -0.678125
1.38 -0.569899
1.39 -0.46436
1.4 -0.364715
1.41 -0.27295
1.42 -0.193553
1.43 -0.1269
1.44 -0.0753601
1.45 -0.0414021
1.46 -0.0235612
1.47 -0.0248388
1.48 -0.0430691
1.49 -0.0773985
1.5 -0.128413
1.51 -0.191996
1.52 -0.267637
1.53 -0.352224
1.54 -0.442764
1.55 -0.537083
1.56 -0.631754
1.57 -0.723924
1.58 -0.810738
1.59 -0.890397
1.6 -0.9588
1.61 -1.01585
1.62 -1.0593
1.63 -1.08723
1.64 -1.10086
1.65 -1.09743
1.66 -1.07906
1.67 -1.04618
1.68 -0.998291
1.69 -0.938734
1.7 -0.867422
1.71 -0.786886
1.72 -0.699221
1.73 -0.605389
1.74 -0.508167
1.75 -0.408948
1.76 -0.309431
1.77 -0.210923
1.78 -0.115014
1.79 -0.0221397
1.8 0.0668221
1.81 0.151354
1.82 0.231855
1.83 0.307728
1.84 0.379892
1.85 0.448705
1.86 0.514503
1.87 0.57828
1.88 0.640383
1.89 0.701495
1.9 0.762041
1.91 0.822227
1.92 0.882166
1.93 0.941633
1.94 1.00021
1.95 1.05738
1.96 1.11177
1.97 1.16279
1.98 1.20881
1.99 1.24824
2 1.2804
2.01 1.30211
2.02 1.31342
2.03 1.31255
2.04 1.29732
2.05 1.26872
2.06 1.22382
2.07 1.16392
2.08 1.08923
2.09 0.998431
2.1 0.894764
2.11 0.777847
2.12 0.650048
2.13 0.513888
2.14 0.370473
2.15 0.223482
2.16 0.0752534
2.17 -0.0713192
2.18 -0.213876
2.19 -0.348495
2.2 -0.473982
2.21 -0.587558
2.22 -0.686522
2.23 -0.771214
2.24 -0.837917
2.25 -0.888027
2.26 -0.921282
2.27 -0.936223
2.28 -0.936246
2.29 -0.920542
2.3 -0.891833
2.31 -0.85258
2.32 -0.803632
2.33 -0.748961
2.34 -0.690552
2.35 -0.631173
2.36 -0.573225
2.37 -0.519827
2.38 -0.472314
2.39 -0.433007
2.4 -0.403819
2.41 -0.384637
2.42 -0.378076
2.43 -0.382776
2.44 -0.398828
2.45 -0.426586
2.46 -0.463502
2.47 -0.509505
2.48 -0.562189
2.49 -0.619586
2.5 -0.680073
2.51 -0.741118
2.52 -0.800562
2.53 -0.856314
2.54 -0.906904
2.55 -0.949183
2.56 -0.983168
2.57 -1.00685
2.58 -1.0191
2.59 -1.02063
2.6 -1.00913
2.61 -0.986568
2.62 -0.952904
2.63 -0.908103
2.64 -0.854511
2.65 -0.79196
2.66 -0.722606
2.67 -0.647844
2.68 -0.568553
2.69 -0.486742
2.7 -0.403453
2.71 -0.31998
2.72 -0.237296
2.73 -0.156554
2.74 -0.0780669
2.75 -0.0025307
2.76 0.0697759
2.77 0.139109
2.78 0.204984
2.79 0.268172
2.8 0.328846
2.81 0.387303
2.82 0.444218
2.83 0.499787
2.84 0.554515
2.85 0.608652
2.86 0.662288
2.87 0.715496
2.88 0.768029
2.89 0.819588
2.9 0.869755
2.91 0.917522
2.92 0.962514
2.93 1.00346
2.94 1.03938
2.95 1.06979
2.96 1.0923
2.97 1.10726
2.98 1.11317
2.99 1.10882
3 1.09481
3.01 1.06885
3.02 1.03223
3.03 0.984699
3.04 0.925511
3.05 0.856729
3.06 0.777674
3.07 0.690107
3.08 0.59537
3.09 0.493861
3.1 0.388033
3.11 0.278935
3.12 0.16829
3.13 0.0576626
3.14 -0.0511157
3.15 -0.156943
3.16 -0.258183
3.17 -0.353438
3.18 -0.442372
3.19 -0.52276
3.2 -0.5951
3.21 -0.658571
3.22 -0.712137
3.23 -0.756942
3.24 -0.791554
3.25 -0.817053
3.26 -0.833796
3.27 -0.840971
3.28 -0.840385
3.29 -0.831414
3.3 -0.81485
3.31 -0.791561
3.32 -0.760656
3.33 -0.723752
3.34 -0.680479
3.35 -0.631036
3.36 -0.576216
3.37 -0.515114
3.38 -0.448831
3.39 -0.377208
3.4 -0.300123
3.41 -0.218463
3.42 -0.131781
3.43 -0.0410165
3.44 0.0533529
3.45 0.151031
3.46 0.250804
3.47 0.351997
3.48 0.453458
3.49 0.554096
3.5 0.652295
3.51 0.747155
3.52 0.836848
3.53 0.919945
3.54 0.995784
3.55 1.06126
3.56 1.11688
3.57 1.1608
3.58 1.19152
3.59 1.20991
3.6 1.21319
3.61 1.20296
3.62 1.179
3.63 1.1403
3.64 1.08947
3.65 1.02554
3.66 0.950603
3.67 0.866229
3.68 0.772614
3.69 0.672753
3.7 0.567613
3.71 0.459111
3.72 0.349087
3.73 0.239173
3.74 0.130873
3.75 0.0257442
3.76 -0.0748031
3.77 -0.170291
3.78 -0.258801
3.79 -0.340687
3.8 -0.415338
3.81 -0.482018
3.82 -0.541835
3.83 -0.593963
3.84 -0.639527
3.85 -0.679165
3.86 -0.712808
3.87 -0.742056
3.88 -0.767098
3.89 -0.788856
3.9 -0.80818
3.91 -0.825288
3.92 -0.841044
3.93 -0.85568
3.94 -0.86944
3.95 -0.882518
3.96 -0.894742
3.97 -0.906095
3.98 -0.916277
3.99 -0.924844
4 -0.931627
4.01 -0.935841
4.02 -0.93733
4.03 -0.935716
4.04 -0.930257
4.05 -0.921281
4.06 -0.908144
4.07 -0.891079
4.08 -0.870413
4.09 -0.845826
4.1 -0.81837
4.11 -0.788282
4.12 -0.756277
4.13 -0.723222
4.14 -0.689862
4.15 -0.657084
4.16 -0.625773
4.17 -0.596875
4.18 -0.570803
4.19 -0.548788
4.2 -0.530848
4.21 -0.517382
4.22 -0.509015
4.23 -0.505007
4.24 -0.505751
4.25 -0.510452
4.26 -0.51837
4.27 -0.529083
4.28 -0.541216
4.29 -0.553808
4.3 -0.565625
4.31 -0.575622
4.32 -0.581935
4.33 -0.584049
4.34 -0.580459
4.35 -0.569939
4.36 -0.552459
4.37 -0.525942
4.38 -0.491152
4.39 -0.447582
4.4 -0.39453
4.41 -0.333494
4.42 -0.263752
4.43 -0.186808
4.44 -0.103694
4.45 -0.0148207
4.46 0.0777093
4.47 0.172913
4.48 0.269177
4.49 0.365053
4.5 0.45871
4.51 0.549127
4.52 0.634606
4.53 0.713782
4.54 0.786296
4.55 0.849761
4.56 0.904806
4.57 0.950469
4.58 0.985801
4.59 1.012
4.6 1.02761
4.61 1.03402
4.62 1.03168
4.63 1.02022
4.64 1.00167
4.65 0.975935
4.66 0.94434
4.67 0.908104
4.68 0.867529
4.69 0.824292
4.7 0.779072
4.71 0.732838
4.72 0.686476
4.73 0.640878
4.74 0.596617
4.75 0.554395
4.76 0.514884
4.77 0.478176
4.78 0.445174
4.79 0.415711
4.8 0.390024
4.81 0.368634
4.82 0.350984
4.83 0.33762
4.84 0.328164
4.85 0.322343
4.86 0.320536
4.87 0.321875
4.88 0.326451
4.89 0.333851
4.9 0.343486
4.91 0.355336
4.92 0.368552
4.93 0.382744
4.94 0.397348
4.95 0.411767
4.96 0.425251
4.97 0.437281
4.98 0.447168
4.99 0.454006
5 0.457593
5.01 0.456737
5.02 0.451249
5.03 0.440758
5.04 0.424075
5.05 0.401849
5.06 0.373147
5.07 0.338133
5.08 0.297331
5.09 0.249811
5.1 0.197096
5.11 0.139173
5.12 0.0766614
5.13 0.0107611
5.14 -0.0581462
5.15 -0.128627
5.16 -0.199698
5.17 -0.27016
5.18 -0.338998
5.19 -0.40465
5.2 -0.466309
5.21 -0.522987
5.22 -0.57298
5.23 -0.616472
5.24 -0.651809
5.25 -0.678873
5.26 -0.697809
5.27 -0.70692
5.28 -0.707876
5.29 -0.69999
5.3 -0.683694
5.31 -0.660312
5.32 -0.629214
5.33 -0.592463
5.34 -0.550601
5.35 -0.504473
5.36 -0.455588
5.37 -0.404675
5.38 -0.353037
5.39 -0.301654
5.4 -0.251618
5.41 -0.203564
5.42 -0.1586
5.43 -0.117155
5.44 -0.0795451
5.45 -0.0468063
5.46 -0.0183544
5.47 0.00522273
5.48 0.0240728
5.49 0.0387678
5.5 0.0487271
5.51 0.0551116
5.52 0.0580091
5.53 0.0577761
5.54 0.0551918
5.55 0.0503367
5.56 0.0439388
5.57 0.0363388
5.58 0.0278166
5.59 0.0187748
5.6 0.00937934
5.61 -0.000175288
5.62 -0.00979118
5.63 -0.0194322
5.64 -0.0291041
5.65 -0.038866
5.66 -0.0487965
5.67 -0.0589675
5.68 -0.0695388
5.69 -0.0805175
5.7 -0.0919955
5.71 -0.103995
5.72 -0.11643
5.73 -0.129282
5.74 -0.142344
5.75 -0.155421
5.76 -0.168222
5.77 -0.180485
5.78 -0.191714
5.79 -0.201615
5.8 -0.209798
5.81 -0.215571
5.82 -0.218895
5.83 -0.219018
5.84 -0.215743
5.85 -0.209004
5.86 -0.197887
5.87 -0.182988
5.88 -0.163832
5.89 -0.140454
5.9 -0.11338
5.91 -0.0821127
5.92 -0.0476226
5.93 -0.0100903
5.94 0.0301323
5.95 0.0722176
5.96 0.115828
5.97 0.160165
5.98 0.204611
5.99 0.248449
6 0.291153
6.01 0.33189
6.02 0.370203
6.03 0.405707
6.04 0.437397
6.05 0.465518
6.06 0.489324
6.07 0.508648
6.08 0.523759
6.09 0.533679
6.1 0.539318
6.11 0.540406
6.12 0.536956
6.13 0.529692
6.14 0.518229
6.15 0.503427
6.16 0.485551
6.17 0.464753
6.18 0.44182
6.19 0.416879
6.2 0.390524
6.21 0.363192
6.22 0.335205
6.23 0.307046
6.24 0.279082
6.25 0.251668
6.26 0.22505
6.27 0.199735
6.28 0.17574
6.29 0.153408
6.3 0.132958
6.31 0.114314
6.32 0.0979371
6.33 0.0835543
6.34 0.0712619
6.35 0.0611721
6.36 0.052926
6.37 0.0466917
6.38 0.0421101
6.39 0.03897
6.4 0.0371891
6.41 0.0363051
6.42 0.0361256
6.43 0.0362923
6.44 0.0364809
6.45 0.0363069
6.46 0.0355139
6.47 0.0337172
6.48 0.0306091
6.49 0.026083
6.5 0.0195998
6.51 0.0113029
6.52 0.000974429
6.53 -0.0115441
6.54 -0.0259636
6.55 -0.0425065
6.56 -0.0607703
6.57 -0.0805397
6.58 -0.101647
6.59 -0.123559
6.6 -0.145953
6.61 -0.168343
6.62 -0.190289
6.63 -0.211151
6.64 -0.230642
6.65 -0.248116
6.66 -0.263149
6.67 -0.275606
6.68 -0.284549
6.69 -0.290318
6.7 -0.292475
6.71 -0.29078
6.72 -0.28567
6.73 -0.276619
6.74 -0.264299
6.75 -0.24889
6.76 -0.230487
6.77 -0.209892
6.78 -0.187282
6.79 -0.163342
6.8 -0.138625
6.81 -0.113653
6.82 -0.0890014
6.83 -0.0652691
6.84 -0.0429474
6.85 -0.022335
6.86 -0.00426056
6.87 0.0114117
6.88 0.024205
6.89 0.0338845
6.9 0.0407089
6.91 0.0441306
6.92 0.0447044
6.93 0.0424598
6.94 0.0374202
6.95 0.0302023
6.96 0.020795
6.97 0.00975011
6.98 -0.00256611
6.99 -0.015905
7 -0.0297614
7.01 -0.0438337
7.02 -0.0577732
7.03 -0.0713108
7.04 -0.0840559
7.05 -0.0959188
7.06 -0.106609
7.07 -0.11595
7.08 -0.12396
7.09 -0.13025
7.1 -0.135006
7.11 -0.138072
7.12 -0.139288
7.13 -0.138832
7.14 -0.136352
7.15 -0.132005
7.16 -0.125714
7.17 -0.117159
7.18 -0.106579
7.19 -0.0935639
7.2 -0.0781512
7.21 -0.0603563
7.22 -0.0396453
7.23 -0.0164145
7.24 0.00969357
7.25 0.0386775
7.26 0.0702604
7.27 0.104918
7.28 0.142018
7.29 0.18157
7.3 0.223411
7.31 0.266981
7.32 0.312165
7.33 0.358326
7.34 0.405003
7.35 0.451652
7.36 0.497733
7.37 0.542516
7.38 0.585499
7.39 0.626194
7.4 0.663618
7.41 0.697804
7.42 0.727888
7.43 0.753606
7.44 0.775071
7.45 0.791154
7.46 0.802745
7.47 0.809447
7.48 0.811297
7.49 0.809048
7.5 0.802308
7.51 0.792117
7.52 0.778826
7.53 0.762794
7.54 0.744935
7.55 0.725613
7.56 0.705565
7.57 0.685343
7.58 0.665516
7.59 0.646467
7.6 0.6287
7.61 0.612453
7.62 0.597795
7.63 0.585125
7.64 0.574066
7.65 0.564637
7.66 0.556586
7.67 0.54946
7.68 0.54295
7.69 0.536481
7.7 0.529527
7.71 0.521446
7.72 0.511844
7.73 0.499838
7.74 0.485165
7.75 0.467375
7.76 0.445663
7.77 0.420308
7.78 0.390566
7.79 0.356596
7.8 0.318624
7.81 0.276088
7.82 0.22997
7.83 0.180207
7.84 0.127281
7.85 0.0719524
7.86 0.0143923
7.87 -0.0444207
7.88 -0.103939
7.89 -0.163483
7.9 -0.222441
7.91 -0.279998
7.92 -0.335742
7.93 -0.389131
7.94 -0.439428
7.95 -0.486702
7.96 -0.53018
7.97 -0.569939
7.98 -0.606006
7.99 -0.637775
8 -0.665988
8.01 -0.690349
8.02 -0.711161
8.03 -0.728962
8.04 -0.743444
8.05 -0.755516
8.06 -0.765284
8.07 -0.773049
8.08 -0.779333
8.09 -0.784204
8.1 -0.788122
8.11 -0.791276
8.12 -0.793808
8.13 -0.795928
8.14 -0.797656
8.15 -0.799057
8.16 -0.800116
8.17 -0.800706
8.18 -0.800793
8.19 -0.80015
8.2 -0.798627
8.21 -0.796102
8.22 -0.792126
8.23 -0.786739
8.24 -0.779576
8.25 -0.770403
8.26 -0.759249
8.27 -0.745525
8.28 -0.729476
8.29 -0.710865
8.3 -0.689445
8.31 -0.665529
8.32 -0.638683
8.33 -0.609243
8.34 -0.577276
8.35 -0.542592
8.36 -0.505718
8.37 -0.466518
8.38 -0.425322
8.39 -0.38244
8.4 -0.337849
8.41 -0.292084
8.42 -0.245294
8.43 -0.197786
8.44 -0.149898
8.45 -0.101904
8.46 -0.0541168
8.47 -0.00684587
8.48 0.0395705
8.49 0.0849702
8.5 0.128869
8.51 0.171197
8.52 0.211709
8.53 0.249999
8.54 0.286212
8.55 0.319882
8.56 0.351085
8.57 0.379846
8.58 0.405733
8.59 0.42921
8.6 0.45002
8.61 0.468299
8.62 0.48436
8.63 0.497875
8.64 0.509445
8.65 0.519059
8.66 0.526854
8.67 0.533206
8.68 0.538055
8.69 0.541778
8.7 0.544497
8.71 0.546287
8.72 0.547387
8.73 0.547786
8.74 0.547609
8.75 0.546896
8.76 0.545567
8.77 0.543686
8.78 0.541116
8.79 0.537796
8.8 0.533692
8.81 0.528511
8.82 0.522332
8.83 0.514944
8.84 0.506233
8.85 0.496269
8.86 0.484756
8.87 0.471917
8.88 0.457719
8.89 0.44216
8.9 0.425534
8.91 0.407857
8.92 0.389461
8.93 0.370602
8.94 0.351562
8.95 0.332681
8.96 0.314354
8.97 0.296917
8.98 0.280646
8.99 0.266148
9 0.253426
9.01 0.242955
9.02 0.234961
9.03 0.229356
9.04 0.226751
9.05 0.226687
9.06 0.229298
9.07 0.234583
9.08 0.242044
9.09 0.251778
9.1 0.2632
9.11 0.275977
9.12 0.2898
9.13 0.304108
9.14 0.318495
9.15 0.332506
9.16 0.345758
9.17 0.357675
9.18 0.368135
9.19 0.376656
9.2 0.383034
9.21 0.387308
9.22 0.388913
9.23 0.388296
9.24 0.385312
9.25 0.380009
9.26 0.372806
9.27 0.3636
9.28 0.352907
9.29 0.340952
9.3 0.327941
9.31 0.314281
9.32 0.300157
9.33 0.285838
9.34 0.271505
9.35 0.257306
9.36 0.243291
9.37 0.229489
9.38 0.215836
9.39 0.202212
9.4 0.188414
9.41 0.17425
9.42 0.159414
9.43 0.143584
9.44 0.126579
9.45 0.107814
9.46 0.087257
9.47 0.064568
9.48 0.0393689
9.49 0.0118334
9.5 -0.018522
9.51 -0.0514229
9.52 -0.0867795
9.53 -0.124718
9.54 -0.164623
9.55 -0.206418
9.56 -0.2496
9.57 -0.293665
9.58 -0.338188
9.59 -0.38257
9.6 -0.42623
9.61 -0.468588
9.62 -0.509279
9.63 -0.547375
9.64 -0.582847
9.65 -0.61514
9.66 -0.643757
9.67 -0.668926
9.68 -0.68989
9.69 -0.707086
9.7 -0.720524
9.71 -0.729952
9.72 -0.736144
9.73 -0.738933
9.74 -0.738899
9.75 -0.736523
9.76 -0.731896
9.77 -0.725794
9.78 -0.718479
9.79 -0.710389
9.8 -0.701933
9.81 -0.693412
9.82 -0.685102
9.83 -0.67722
9.84 -0.669929
9.85 -0.663232
9.86 -0.657241
9.87 -0.651809
9.88 -0.646845
9.89 -0.642218
9.9 -0.637705
9.91 -0.633089
9.92 -0.628157
9.93 -0.622713
9.94 -0.616451
9.95 -0.609331
9.96 -0.601099
9.97 -0.591693
9.98 -0.581161
9.99 -0.569269
10 -0.556307
10.01 -0.542267
10.02 -0.527276
10.03 -0.511592
10.04 -0.4953
10.05 -0.47869
10.06 -0.461944
10.07 -0.445261
10.08 -0.428788
10.09 -0.412703
10.1 -0.397052
10.11 -0.381861
10.12 -0.367157
10.13 -0.352783
10.14 -0.338624
10.15 -0.324456
10.16 -0.310041
10.17 -0.294981
10.18 -0.27906
10.19 -0.261824
10.2 -0.242894
10.21 -0.222119
10.22 -0.198744
10.23 -0.172901
10.24 -0.144209
10.25 -0.112343
10.26 -0.0776125
10.27 -0.039523
10.28 0.00145094
10.29 0.0451479
10.3 0.0915513
10.31 0.139923
10.32 0.190063
10.33 0.241327
10.34 0.293128
10.35 0.344845
10.36 0.395874
10.37 0.445465
10.38 0.492978
10.39 0.538049
10.4 0.579496
10.41 0.617446
10.42 0.651188
10.43 0.680198
10.44 0.704782
10.45 0.723944
10.46 0.738312
10.47 0.747799
10.48 0.752095
10.49 0.752107
10.5 0.747476
10.51 0.738926
10.52 0.726941
10.53 0.711494
10.54 0.693562
10.55 0.673303
10.56 0.651253
10.57 0.627946
10.58 0.603584
10.59 0.5787
10.6 0.553548
10.61 0.528394
10.62 0.503429
10.63 0.47886
10.64 0.454728
10.65 0.431104
10.66 0.408038
10.67 0.385438
10.68 0.363331
10.69 0.341609
10.7 0.320203
10.71 0.29908
10.72 0.278144
10.73 0.257381
10.74 0.236767
10.75 0.216304
10.76 0.196068
10.77 0.176093
10.78 0.156513
10.79 0.137468
10.8 0.119049
10.81 0.10159
10.82 0.0851308
10.83 0.0699295
10.84 0.0562756
10.85 0.0441626
10.86 0.0340637
10.87 0.0259224
10.88 0.0198829
10.89 0.0163065
10.9 0.0149126
10.91 0.016062
10.92 0.0195997
10.93 0.0253784
10.94 0.0336998
10.95 0.0440388
10.96 0.0564805
10.97 0.0708125
10.98 0.0866717
10.99 0.104107
11 0.122602
11.01 0.141971
11.02 0.161938
11.03 0.182155
11.04 0.202318
11.05 0.22212
11.06 0.241248
11.07 0.259289
11.08 0.276097
11.09 0.291147
11.1 0.304273
11.11 0.315265
11.12 0.323485
11.13 0.329124
11.14 0.331612
11.15 0.330823
11.16 0.326861
11.17 0.318866
11.18 0.307446
11.19 0.292196
11.2 0.272997
11.21 0.250294
11.22 0.223492
11.23 0.193279
11.24 0.159688
11.25 0.122707
11.26 0.0830401
11.27 0.0406114
11.28 -0.00394857
11.29 -0.050219
11.3 -0.0979298
11.31 -0.146417
11.32 -0.195278
11.33 -0.243999
11.34 -0.29215
11.35 -0.339081
11.36 -0.384581
11.37 -0.4281
11.38 -0.469257
11.39 -0.508017
11.4 -0.543624
11.41 -0.576388
11.42 -0.60604
11.43 -0.632349
11.44 -0.65575
11.45 -0.675831
11.46 -0.693086
11.47 -0.70768
11.48 -0.719546
11.49 -0.729309
11.5 -0.736938
11.51 -0.742821
11.52 -0.747275
11.53 -0.75031
11.54 -0.752348
11.55 -0.753431
11.56 -0.753683
11.57 -0.753239
11.58 -0.751959
11.59 -0.74994
11.6 -0.747034
11.61 -0.743058
11.62 -0.737978
11.63 -0.73137
11.64 -0.723206
11.65 -0.713245
11.66 -0.701076
11.67 -0.686823
11.68 -0.669991
11.69 -0.650654
11.7 -0.62883
11.71 -0.604117
11.72 -0.577021
11.73 -0.547366
11.74 -0.515402
11.75 -0.481543
11.76 -0.445725
11.77 -0.408631
11.78 -0.370517
11.79 -0.331788
11.8 -0.292897
11.81 -0.254294
11.82 -0.216339
11.83 -0.179421
11.84 -0.143995
11.85 -0.110135
11.86 -0.0783457
11.87 -0.0486065
11.88 -0.0209725
11.89 0.00423773
11.9 0.0274323
11.91 0.0484531
11.92 0.0675544
11.93 0.0850557
11.94 0.100919
11.95 0.115678
11.96 0.129484
11.97 0.142601
11.98 0.155318
11.99 0.167789
12 0.180208
12.01 0.192672
12.02 0.20523
12.03 0.217851
12.04 0.230446
12.05 0.242863
12.06 0.254899
12.07 0.266213
12.08 0.27662
12.09 0.285629
12.1 0.292962
12.11 0.298382
12.12 0.301156
12.13 0.301427
12.14 0.298642
12.15 0.292608
12.16 0.283504
12.17 0.270615
12.18 0.254581
12.19 0.235272
12.2 0.212742
12.21 0.187618
12.22 0.159819
12.23 0.130068
12.24 0.0987739
12.25 0.0663329
12.26 0.033399
12.27 0.000472672
12.28 -0.0319157
12.29 -0.0633158
12.3 -0.0930375
12.31 -0.120947
12.32 -0.146453
12.33 -0.16931
12.34 -0.189546
12.35 -0.206417
12.36 -0.22045
12.37 -0.231378
12.38 -0.239177
12.39 -0.244298
12.4 -0.246419
12.41 -0.246135
12.42 -0.243574
12.43 -0.238801
12.44 -0.232326
12.45 -0.224117
12.46 -0.21453
12.47 -0.203761
12.48 -0.191809
12.49 -0.178968
12.5 -0.165205
12.51 -0.150615
12.52 -0.135285
12.53 -0.119083
12.54 -0.102166
12.55 -0.0844641
12.56 -0.0659874
12.57 -0.0468487
12.58 -0.0269944
12.59 -0.00663319
12.6 0.0141155
12.61 0.0350632
12.62 0.0559554
12.63 0.0764525
12.64 0.0962545
12.65 0.115003
12.66 0.132111
12.67 0.147418
12.68 0.160211
12.69 0.170202
12.7 0.177187
12.71 0.180216
12.72 0.179671
12.73 0.174931
12.74 0.165879
12.75 0.15289
12.76 0.135219
12.77 0.113788
12.78 0.0885966
12.79 0.0598631
12.8 0.0284362
12.81 -0.00555267
12.82 -0.0411959
12.83 -0.0778837
12.84 -0.11496
12.85 -0.151707
12.86 -0.187335
12.87 -0.221256
12.88 -0.252976
12.89 -0.281527
12.9 -0.306993
12.91 -0.328642
12.92 -0.346312
12.93 -0.360238
12.94 -0.369598
12.95 -0.375294
12.96 -0.377201
12.97 -0.37552
12.98 -0.370995
12.99 -0.363589
13 -0.354151
13.01 -0.343095
13.02 -0.330825
13.03 -0.317947
13.04 -0.304834
13.05 -0.29188
13.06 -0.279361
13.07 -0.267581
13.08 -0.256541
13.09 -0.246361
13.1 -0.236936
13.11 -0.228068
13.12 -0.219587
13.13 -0.211128
13.14 -0.202332
13.15 -0.192782
13.16 -0.182183
13.17 -0.169868
13.18 -0.155723
13.19 -0.139339
