# xPDFsuite Configuration #
[PDF]
wavelength = 0.1
dataformat = Qnm
inputfile = A3-Li-TiO2-12h-p2_016.chi
backgroundfile = A2_Bkg-Li_d22-00000.chi
mode = xray
bgscale = 0.91
composition = TiO2
outputtype = gr
qmaxinst = 21.4
qmin = 0.1
qmax = 21.4
rmax = 100.0
rmin = 0.0
rstep = 0.01
rpoly = 0.9

[Misc]
inputdir = D:/APS_March_2019/Run3/Processed-Data/A3-Li-TiO2-12h-p2/chi-files
savedir = D:/APS_March_2019/Run3/Processed-Data/A3-Li-TiO2-12h-p2
backgroundfilefull = D:/APS_March_2019/Calib-Bkg/A2_Bkg-Li_d22-00000.chi

#### start data
#S 1
#L r($\AA$)  G($\AA^{-2}$)
0 0
0.01 -0.000131091
0.02 -0.000256483
0.03 -0.000370115
0.04 -0.000466301
0.05 -0.000542941
0.06 -0.00059247
0.07 -0.000616285
0.08 -0.000612372
0.09 -0.000578623
0.1 -0.000520227
0.11 -0.000436082
0.12 -0.000332284
0.13 -0.000213815
0.14 -8.54086e-05
0.15 4.47259e-05
0.16 0.000168309
0.17 0.000276276
0.18 0.000360462
0.19 0.00040285
0.2 0.000398561
0.21 0.000328819
0.22 0.000177168
0.23 -6.27978e-05
0.24 -0.000428609
0.25 -0.000918919
0.26 -0.00155808
0.27 -0.00237416
0.28 -0.00335961
0.29 -0.00455729
0.3 -0.00595316
0.31 -0.00754878
0.32 -0.00936089
0.33 -0.0113421
0.34 -0.0134848
0.35 -0.0157349
0.36 -0.0180309
0.37 -0.020289
0.38 -0.0224203
0.39 -0.0242872
0.4 -0.0257449
0.41 -0.0266868
0.42 -0.0267953
0.43 -0.0260164
0.44 -0.0240812
0.45 -0.020707
0.46 -0.0158641
0.47 -0.00905238
0.48 -0.000311746
0.49 0.010556
0.5 0.0239242
0.51 0.0395405
0.52 0.0578
0.53 0.0785062
0.54 0.101501
0.55 0.126984
0.56 0.154345
0.57 0.183495
0.58 0.213997
0.59 0.245312
0.6 0.276978
0.61 0.308338
0.62 0.338701
0.63 0.36728
0.64 0.393585
0.65 0.416324
0.66 0.435229
0.67 0.449471
0.68 0.457923
0.69 0.460792
0.7 0.456627
0.71 0.44565
0.72 0.427757
0.73 0.401846
0.74 0.3692
0.75 0.329168
0.76 0.282441
0.77 0.230019
0.78 0.171608
0.79 0.109109
0.8 0.0431295
0.81 -0.0251757
0.82 -0.0944431
0.83 -0.163381
0.84 -0.230753
0.85 -0.295211
0.86 -0.355211
0.87 -0.410223
0.88 -0.458247
0.89 -0.499108
0.9 -0.532162
0.91 -0.555898
0.92 -0.571434
0.93 -0.577599
0.94 -0.575134
0.95 -0.56496
0.96 -0.546497
0.97 -0.522035
0.98 -0.492057
0.99 -0.457939
1 -0.421371
1.01 -0.383607
1.02 -0.346348
1.03 -0.311135
1.04 -0.279647
1.05 -0.252707
1.06 -0.232477
1.07 -0.219171
1.08 -0.213616
1.09 -0.217171
1.1 -0.228756
1.11 -0.249459
1.12 -0.278238
1.13 -0.314115
1.14 -0.357115
1.15 -0.404894
1.16 -0.45651
1.17 -0.510181
1.18 -0.564123
1.19 -0.616215
1.2 -0.664974
1.21 -0.708321
1.22 -0.744282
1.23 -0.772269
1.24 -0.789309
1.25 -0.795816
1.26 -0.79077
1.27 -0.772759
1.28 -0.7435
1.29 -0.701606
1.3 -0.648877
1.31 -0.586579
1.32 -0.514923
1.33 -0.436972
1.34 -0.353936
1.35 -0.268172
1.36 -0.18192
1.37 -0.0977722
1.38 -0.0175662
1.39 0.0561138
1.4 0.121025
1.41 0.17641
1.42 0.218621
1.43 0.248368
1.44 0.264205
1.45 0.264661
1.46 0.251618
1.47 0.223188
1.48 0.181633
1.49 0.128081
1.5 0.0626342
1.51 -0.0113024
1.52 -0.0928234
1.53 -0.179355
1.54 -0.268535
1.55 -0.358203
1.56 -0.446101
1.57 -0.529851
1.58 -0.607378
1.59 -0.677661
1.6 -0.737454
1.61 -0.787249
1.62 -0.825527
1.63 -0.851137
1.64 -0.865437
1.65 -0.866628
1.66 -0.856707
1.67 -0.836313
1.68 -0.805483
1.69 -0.766879
1.7 -0.720856
1.71 -0.669429
1.72 -0.614251
1.73 -0.556423
1.74 -0.497747
1.75 -0.439446
1.76 -0.382676
1.77 -0.328134
1.78 -0.277096
1.79 -0.229379
1.8 -0.185437
1.81 -0.145333
1.82 -0.108372
1.83 -0.0745822
1.84 -0.0429141
1.85 -0.0126864
1.86 0.0168912
1.87 0.0467143
1.88 0.0777193
1.89 0.110556
1.9 0.145755
1.91 0.184163
1.92 0.225511
1.93 0.270175
1.94 0.317798
1.95 0.367715
1.96 0.419542
1.97 0.472016
1.98 0.524046
1.99 0.574238
2 0.62148
2.01 0.663483
2.02 0.69953
2.03 0.72794
2.04 0.746728
2.05 0.756038
2.06 0.75326
2.07 0.738898
2.08 0.712707
2.09 0.673126
2.1 0.622441
2.11 0.559827
2.12 0.486891
2.13 0.405471
2.14 0.315832
2.15 0.221146
2.16 0.122928
2.17 0.0234348
2.18 -0.0751748
2.19 -0.170139
2.2 -0.259929
2.21 -0.342251
2.22 -0.414772
2.23 -0.477246
2.24 -0.526554
2.25 -0.56331
2.26 -0.586948
2.27 -0.595925
2.28 -0.592619
2.29 -0.575978
2.3 -0.547935
2.31 -0.510285
2.32 -0.463307
2.33 -0.410333
2.34 -0.352757
2.35 -0.292863
2.36 -0.232823
2.37 -0.175091
2.38 -0.12122
2.39 -0.0733213
2.4 -0.0333084
2.41 -0.00149888
2.42 0.0194791
2.43 0.0303598
2.44 0.0306128
2.45 0.0193479
2.46 -0.00146857
2.47 -0.0324912
2.48 -0.0718354
2.49 -0.11803
2.5 -0.170373
2.51 -0.226296
2.52 -0.284408
2.53 -0.342784
2.54 -0.399785
2.55 -0.453123
2.56 -0.501928
2.57 -0.544388
2.58 -0.579148
2.59 -0.606184
2.6 -0.623264
2.61 -0.63143
2.62 -0.63021
2.63 -0.619105
2.64 -0.59979
2.65 -0.571634
2.66 -0.536322
2.67 -0.494879
2.68 -0.447741
2.69 -0.396879
2.7 -0.343045
2.71 -0.287579
2.72 -0.23161
2.73 -0.176233
2.74 -0.12222
2.75 -0.0704792
2.76 -0.0216499
2.77 0.0241526
2.78 0.0659989
2.79 0.104387
2.8 0.139131
2.81 0.17019
2.82 0.198246
2.83 0.223143
2.84 0.2456
2.85 0.265974
2.86 0.284451
2.87 0.301627
2.88 0.317608
2.89 0.332672
2.9 0.346963
2.91 0.360351
2.92 0.372888
2.93 0.384264
2.94 0.394186
2.95 0.40245
2.96 0.408191
2.97 0.411369
2.98 0.41129
2.99 0.407308
3 0.399454
3.01 0.386573
3.02 0.368981
3.03 0.346362
3.04 0.318133
3.05 0.285085
3.06 0.246648
3.07 0.203534
3.08 0.156281
3.09 0.104864
3.1 0.0505561
3.11 -0.00625076
3.12 -0.0646677
3.13 -0.123808
3.14 -0.182821
3.15 -0.240913
3.16 -0.297194
3.17 -0.350824
3.18 -0.401464
3.19 -0.447869
3.2 -0.490151
3.21 -0.527786
3.22 -0.560142
3.23 -0.587778
3.24 -0.609894
3.25 -0.627079
3.26 -0.639557
3.27 -0.646961
3.28 -0.650335
3.29 -0.649477
3.3 -0.644921
3.31 -0.637222
3.32 -0.626132
3.33 -0.612503
3.34 -0.59629
3.35 -0.577656
3.36 -0.556945
3.37 -0.533787
3.38 -0.508539
3.39 -0.481004
3.4 -0.450921
3.41 -0.41847
3.42 -0.383059
3.43 -0.34485
3.44 -0.3037
3.45 -0.259159
3.46 -0.211671
3.47 -0.160842
3.48 -0.106979
3.49 -0.050418
3.5 0.00897062
3.51 0.0703386
3.52 0.133406
3.53 0.197544
3.54 0.262052
3.55 0.326143
3.56 0.389123
3.57 0.450103
3.58 0.508115
3.59 0.562753
3.6 0.612524
3.61 0.657308
3.62 0.696384
3.63 0.728588
3.64 0.754448
3.65 0.772647
3.66 0.783565
3.67 0.787387
3.68 0.783079
3.69 0.772116
3.7 0.75399
3.71 0.729314
3.72 0.699101
3.73 0.662824
3.74 0.622182
3.75 0.577417
3.76 0.529149
3.77 0.478392
3.78 0.425429
3.79 0.371187
3.8 0.316187
3.81 0.26095
3.82 0.205957
3.83 0.151694
3.84 0.0984465
3.85 0.0464673
3.86 -0.00380801
3.87 -0.052463
3.88 -0.0991296
3.89 -0.143772
3.9 -0.186443
3.91 -0.226648
3.92 -0.264727
3.93 -0.300359
3.94 -0.33341
3.95 -0.364026
3.96 -0.391554
3.97 -0.416301
3.98 -0.437941
3.99 -0.45609
4 -0.471018
4.01 -0.481993
4.02 -0.489294
4.03 -0.492823
4.04 -0.492073
4.05 -0.487672
4.06 -0.479179
4.07 -0.46698
4.08 -0.451483
4.09 -0.432461
4.1 -0.410878
4.11 -0.386927
4.12 -0.361187
4.13 -0.33437
4.14 -0.307002
4.15 -0.279826
4.16 -0.253522
4.17 -0.228838
4.18 -0.206171
4.19 -0.186535
4.2 -0.170063
4.21 -0.157205
4.22 -0.148657
4.23 -0.143992
4.24 -0.143852
4.25 -0.14782
4.26 -0.155545
4.27 -0.167221
4.28 -0.181763
4.29 -0.198915
4.3 -0.217915
4.31 -0.237924
4.32 -0.258213
4.33 -0.277927
4.34 -0.296193
4.35 -0.312122
4.36 -0.325277
4.37 -0.334368
4.38 -0.339373
4.39 -0.339704
4.4 -0.334622
4.41 -0.324666
4.42 -0.309019
4.43 -0.288298
4.44 -0.262848
4.45 -0.232458
4.46 -0.198386
4.47 -0.160814
4.48 -0.120622
4.49 -0.0787182
4.5 -0.0357315
4.51 0.00732877
4.52 0.0496298
4.53 0.0903168
4.54 0.128868
4.55 0.164088
4.56 0.195908
4.57 0.223696
4.58 0.246824
4.59 0.265674
4.6 0.279432
4.61 0.28867
4.62 0.293562
4.63 0.293899
4.64 0.290714
4.65 0.284015
4.66 0.274547
4.67 0.263005
4.68 0.249732
4.69 0.235623
4.7 0.221214
4.71 0.207123
4.72 0.193822
4.73 0.182046
4.74 0.171959
4.75 0.164018
4.76 0.158602
4.77 0.155573
4.78 0.155451
4.79 0.157896
4.8 0.162866
4.81 0.170452
4.82 0.180082
4.83 0.191764
4.84 0.205032
4.85 0.219493
4.86 0.234909
4.87 0.250752
4.88 0.266666
4.89 0.282246
4.9 0.297178
4.91 0.310897
4.92 0.323287
4.93 0.333922
4.94 0.342447
4.95 0.348862
4.96 0.352517
4.97 0.353585
4.98 0.351823
4.99 0.346843
5 0.338972
5.01 0.327661
5.02 0.313152
5.03 0.295491
5.04 0.27423
5.05 0.249955
5.06 0.222336
5.07 0.191597
5.08 0.158088
5.09 0.121441
5.1 0.0824073
5.11 0.0409927
5.12 -0.00252662
5.13 -0.0476245
5.14 -0.0941766
5.15 -0.141559
5.16 -0.189371
5.17 -0.237112
5.18 -0.28431
5.19 -0.330282
5.2 -0.374606
5.21 -0.416771
5.22 -0.455903
5.23 -0.491957
5.24 -0.523979
5.25 -0.551718
5.26 -0.575052
5.27 -0.592767
5.28 -0.605537
5.29 -0.612605
5.3 -0.613849
5.31 -0.609785
5.32 -0.599354
5.33 -0.583686
5.34 -0.562605
5.35 -0.536119
5.36 -0.50518
5.37 -0.469428
5.38 -0.42985
5.39 -0.386854
5.4 -0.340632
5.41 -0.292129
5.42 -0.241571
5.43 -0.189625
5.44 -0.13682
5.45 -0.08357
5.46 -0.0303857
5.47 0.0222931
5.48 0.0740796
5.49 0.124743
5.5 0.173688
5.51 0.22096
5.52 0.266196
5.53 0.30913
5.54 0.349876
5.55 0.38788
5.56 0.423388
5.57 0.456234
5.58 0.48609
5.59 0.513285
5.6 0.537311
5.61 0.558355
5.62 0.576413
5.63 0.590957
5.64 0.602453
5.65 0.610418
5.66 0.614897
5.67 0.616096
5.68 0.613274
5.69 0.607108
5.7 0.597261
5.71 0.583706
5.72 0.566902
5.73 0.54635
5.74 0.522756
5.75 0.496195
5.76 0.46676
5.77 0.43513
5.78 0.401363
5.79 0.366106
5.8 0.329824
5.81 0.29296
5.82 0.256114
5.83 0.219877
5.84 0.184787
5.85 0.15128
5.86 0.120267
5.87 0.0917996
5.88 0.0666085
5.89 0.0450966
5.9 0.0271937
5.91 0.0139152
5.92 0.00467802
5.93 -0.00019429
5.94 -0.000509003
5.95 0.00306462
5.96 0.010961
5.97 0.0223816
5.98 0.0369838
5.99 0.0545977
6 0.0742971
6.01 0.0957714
6.02 0.118285
6.03 0.141209
6.04 0.163885
6.05 0.185756
6.06 0.206118
6.07 0.224421
6.08 0.240399
6.09 0.253046
6.1 0.26259
6.11 0.268501
6.12 0.270458
6.13 0.268826
6.14 0.262947
6.15 0.253457
6.16 0.240436
6.17 0.223853
6.18 0.204505
6.19 0.18239
6.2 0.158182
6.21 0.13239
6.22 0.105348
6.23 0.0777409
6.24 0.0500236
6.25 0.0226987
6.26 -0.00385255
6.27 -0.0289869
6.28 -0.0526107
6.29 -0.0742867
6.3 -0.093745
6.31 -0.111084
6.32 -0.125813
6.33 -0.138308
6.34 -0.148549
6.35 -0.156535
6.36 -0.162758
6.37 -0.167228
6.38 -0.170433
6.39 -0.172725
6.4 -0.174414
6.41 -0.175967
6.42 -0.177784
6.43 -0.180246
6.44 -0.183643
6.45 -0.188537
6.46 -0.194947
6.47 -0.203268
6.48 -0.213684
6.49 -0.226087
6.5 -0.240924
6.51 -0.257782
6.52 -0.276688
6.53 -0.297572
6.54 -0.319975
6.55 -0.343835
6.56 -0.368651
6.57 -0.394059
6.58 -0.419662
6.59 -0.445018
6.6 -0.469605
6.61 -0.493017
6.62 -0.514901
6.63 -0.534515
6.64 -0.551861
6.65 -0.566319
6.66 -0.577621
6.67 -0.585836
6.68 -0.590091
6.69 -0.590943
6.7 -0.58806
6.71 -0.581309
6.72 -0.571201
6.73 -0.55727
6.74 -0.540182
6.75 -0.520092
6.76 -0.497031
6.77 -0.471705
6.78 -0.444143
6.79 -0.414893
6.8 -0.384363
6.81 -0.352796
6.82 -0.320722
6.83 -0.288462
6.84 -0.256386
6.85 -0.224781
6.86 -0.194105
6.87 -0.164461
6.88 -0.136187
6.89 -0.109531
6.9 -0.0844771
6.91 -0.0614906
6.92 -0.0403838
6.93 -0.0213043
6.94 -0.00444943
6.95 0.0104573
6.96 0.0231094
6.97 0.0337533
6.98 0.0424673
6.99 0.0490764
7 0.0539828
7.01 0.0570641
7.02 0.0585222
7.03 0.0585813
7.04 0.0571344
7.05 0.0545864
7.06 0.0509852
7.07 0.0465104
7.08 0.0414217
7.09 0.0358277
7.1 0.0300147
7.11 0.0241886
7.12 0.0186014
7.13 0.0134497
7.14 0.00908671
7.15 0.00567731
7.16 0.00346471
7.17 0.00285898
7.18 0.00385098
7.19 0.0069066
7.2 0.0121005
7.21 0.0194859
7.22 0.0296022
7.23 0.0420946
7.24 0.0572947
7.25 0.0751795
7.26 0.0954617
7.27 0.118534
7.28 0.143781
7.29 0.171172
7.3 0.20052
7.31 0.231316
7.32 0.263428
7.33 0.29631
7.34 0.329578
7.35 0.362786
7.36 0.395518
7.37 0.427212
7.38 0.4575
7.39 0.486035
7.4 0.5121
7.41 0.535751
7.42 0.556373
7.43 0.573798
7.44 0.588132
7.45 0.598572
7.46 0.605773
7.47 0.609456
7.48 0.609645
7.49 0.606873
7.5 0.600839
7.51 0.592275
7.52 0.581408
7.53 0.568464
7.54 0.554089
7.55 0.538507
7.56 0.522248
7.57 0.505712
7.58 0.489299
7.59 0.473336
7.6 0.458216
7.61 0.444182
7.62 0.431357
7.63 0.420157
7.64 0.410393
7.65 0.402237
7.66 0.395664
7.67 0.390422
7.68 0.3866
7.69 0.383783
7.7 0.381786
7.71 0.380359
7.72 0.37915
7.73 0.377848
7.74 0.376149
7.75 0.373761
7.76 0.370284
7.77 0.365631
7.78 0.3594
7.79 0.351502
7.8 0.341904
7.81 0.330218
7.82 0.31677
7.83 0.301393
7.84 0.284195
7.85 0.265469
7.86 0.245106
7.87 0.223591
7.88 0.201082
7.89 0.17783
7.9 0.154187
7.91 0.130411
7.92 0.106805
7.93 0.0836349
7.94 0.0612227
7.95 0.0396756
7.96 0.0193277
7.97 0.000238763
7.98 -0.0175397
7.99 -0.0337391
8 -0.048605
8.01 -0.0620169
8.02 -0.074102
8.03 -0.0850913
8.04 -0.094944
8.05 -0.104058
8.06 -0.112585
8.07 -0.120768
8.08 -0.128877
8.09 -0.137186
8.1 -0.145911
8.11 -0.155292
8.12 -0.165611
8.13 -0.176912
8.14 -0.189512
8.15 -0.203399
8.16 -0.218605
8.17 -0.235326
8.18 -0.253296
8.19 -0.272592
8.2 -0.293023
8.21 -0.314351
8.22 -0.336502
8.23 -0.359091
8.24 -0.381882
8.25 -0.404558
8.26 -0.426842
8.27 -0.448282
8.28 -0.468687
8.29 -0.487695
8.3 -0.504898
8.31 -0.520268
8.32 -0.533226
8.33 -0.543822
8.34 -0.551906
8.35 -0.557051
8.36 -0.559626
8.37 -0.559252
8.38 -0.556133
8.39 -0.550495
8.4 -0.542037
8.41 -0.531398
8.42 -0.518546
8.43 -0.503746
8.44 -0.487424
8.45 -0.469594
8.46 -0.450784
8.47 -0.431208
8.48 -0.411131
8.49 -0.390861
8.5 -0.370634
8.51 -0.350658
8.52 -0.331107
8.53 -0.312174
8.54 -0.293866
8.55 -0.276328
8.56 -0.259512
8.57 -0.243354
8.58 -0.22787
8.59 -0.212842
8.6 -0.198173
8.61 -0.183677
8.62 -0.169168
8.63 -0.154409
8.64 -0.139249
8.65 -0.123462
8.66 -0.106843
8.67 -0.089342
8.68 -0.0706526
8.69 -0.0508484
8.7 -0.0298488
8.71 -0.00755363
8.72 0.0158221
8.73 0.0403484
8.74 0.0657864
8.75 0.0919477
8.76 0.118689
8.77 0.145685
8.78 0.172683
8.79 0.19939
8.8 0.225559
8.81 0.250743
8.82 0.274845
8.83 0.297501
8.84 0.318456
8.85 0.337715
8.86 0.35478
8.87 0.369885
8.88 0.382888
8.89 0.393668
8.9 0.402566
8.91 0.409398
8.92 0.414539
8.93 0.418192
8.94 0.420443
8.95 0.421751
8.96 0.42228
8.97 0.422365
8.98 0.422287
8.99 0.422325
9 0.422689
9.01 0.423622
9.02 0.425291
9.03 0.427731
9.04 0.431173
9.05 0.435462
9.06 0.440606
9.07 0.446536
9.08 0.453016
9.09 0.459918
9.1 0.466954
9.11 0.47387
9.12 0.480332
9.13 0.48612
9.14 0.490811
9.15 0.49419
9.16 0.496061
9.17 0.495908
9.18 0.493869
9.19 0.489563
9.2 0.482933
9.21 0.474144
9.22 0.462745
9.23 0.449256
9.24 0.433612
9.25 0.415921
9.26 0.396605
9.27 0.375636
9.28 0.353491
9.29 0.330408
9.3 0.306617
9.31 0.282478
9.32 0.258222
9.33 0.234102
9.34 0.210309
9.35 0.187082
9.36 0.164452
9.37 0.142576
9.38 0.12146
9.39 0.101031
9.4 0.0813592
9.41 0.0622151
9.42 0.0435187
9.43 0.0251106
9.44 0.00680103
9.45 -0.011599
9.46 -0.0302515
9.47 -0.0493297
9.48 -0.0690193
9.49 -0.0893499
9.5 -0.110513
9.51 -0.132461
9.52 -0.155176
9.53 -0.178686
9.54 -0.202769
9.55 -0.227339
9.56 -0.252164
9.57 -0.277013
9.58 -0.30158
9.59 -0.325631
9.6 -0.348805
9.61 -0.370784
9.62 -0.391412
9.63 -0.410089
9.64 -0.426878
9.65 -0.441441
9.66 -0.453479
9.67 -0.463181
9.68 -0.470058
9.69 -0.474419
9.7 -0.476282
9.71 -0.475489
9.72 -0.47256
9.73 -0.467392
9.74 -0.46038
9.75 -0.451855
9.76 -0.441905
9.77 -0.43106
9.78 -0.419538
9.79 -0.407673
9.8 -0.395764
9.81 -0.384125
9.82 -0.372948
9.83 -0.362476
9.84 -0.352912
9.85 -0.344269
9.86 -0.336808
9.87 -0.330409
9.88 -0.325096
9.89 -0.32091
9.9 -0.317621
9.91 -0.315248
9.92 -0.313577
9.93 -0.312446
9.94 -0.311754
9.95 -0.311274
9.96 -0.310868
9.97 -0.310381
9.98 -0.309698
9.99 -0.308645
10 -0.307199
10.01 -0.305257
10.02 -0.302766
10.03 -0.299768
10.04 -0.296171
10.05 -0.292083
10.06 -0.287522
10.07 -0.282509
10.08 -0.277155
10.09 -0.271469
10.1 -0.265539
10.11 -0.259413
10.12 -0.253105
10.13 -0.246663
10.14 -0.240073
10.15 -0.233326
10.16 -0.226402
10.17 -0.219206
10.18 -0.21172
10.19 -0.203827
10.2 -0.195431
10.21 -0.186491
10.22 -0.176781
10.23 -0.166326
10.24 -0.154993
10.25 -0.142653
10.26 -0.129375
10.27 -0.114954
10.28 -0.0995063
10.29 -0.0830388
10.3 -0.0654865
10.31 -0.0470714
10.32 -0.0277731
10.33 -0.00777436
10.34 0.0127571
10.35 0.0337213
10.36 0.0548742
10.37 0.0760425
10.38 0.0970237
10.39 0.117658
10.4 0.137651
10.41 0.156937
10.42 0.175298
10.43 0.192546
10.44 0.208696
10.45 0.223436
10.46 0.236874
10.47 0.248935
10.48 0.259471
10.49 0.268696
10.5 0.27644
10.51 0.28287
10.52 0.288087
10.53 0.291997
10.54 0.294891
10.55 0.296735
10.56 0.297659
10.57 0.29782
10.58 0.297155
10.59 0.295885
10.6 0.294012
10.61 0.29158
10.62 0.288683
10.63 0.28526
10.64 0.281395
10.65 0.277069
10.66 0.272235
10.67 0.266944
10.68 0.261093
10.69 0.254711
10.7 0.247781
10.71 0.240207
10.72 0.232075
10.73 0.223305
10.74 0.213933
10.75 0.204019
10.76 0.193501
10.77 0.182531
10.78 0.17113
10.79 0.159383
10.8 0.147415
10.81 0.135307
10.82 0.123201
10.83 0.111224
10.84 0.0995312
10.85 0.0882178
10.86 0.0775065
10.87 0.0674679
10.88 0.0582313
10.89 0.050024
10.9 0.0428034
10.91 0.0368169
10.92 0.0320695
10.93 0.0285597
10.94 0.0265497
10.95 0.0258132
10.96 0.0264972
10.97 0.0285591
10.98 0.0318297
10.99 0.036484
11 0.0421996
11.01 0.0489509
11.02 0.056638
11.03 0.0650144
11.04 0.0740184
11.05 0.0833942
11.06 0.0929664
11.07 0.102535
11.08 0.111908
11.09 0.120834
11.1 0.12914
11.11 0.136663
11.12 0.143069
11.13 0.148367
11.14 0.152256
11.15 0.154636
11.16 0.155532
11.17 0.154527
11.18 0.151906
11.19 0.147494
11.2 0.141265
11.21 0.13346
11.22 0.12387
11.23 0.11286
11.24 0.100518
11.25 0.0869407
11.26 0.0724832
11.27 0.0572572
11.28 0.0415843
11.29 0.0257192
11.3 0.00993948
11.31 -0.00551072
11.32 -0.0203094
11.33 -0.0342287
11.34 -0.0471152
11.35 -0.0585268
11.36 -0.0685468
11.37 -0.0768878
11.38 -0.0834338
11.39 -0.0883113
11.4 -0.0911682
11.41 -0.0923419
11.42 -0.0918059
11.43 -0.0895824
11.44 -0.086022
11.45 -0.0811028
11.46 -0.0751858
11.47 -0.0684952
11.48 -0.061224
11.49 -0.0537049
11.5 -0.0461832
11.51 -0.0389198
11.52 -0.0321275
11.53 -0.0261468
11.54 -0.0210347
11.55 -0.0170622
11.56 -0.0143575
11.57 -0.0128922
11.58 -0.0129977
11.59 -0.0144351
11.6 -0.0172935
11.61 -0.021583
11.62 -0.0270658
11.63 -0.0338424
11.64 -0.0416326
11.65 -0.0503232
11.66 -0.0598394
11.67 -0.0699239
11.68 -0.0805028
11.69 -0.0913958
11.7 -0.102471
11.71 -0.113627
11.72 -0.12476
11.73 -0.13579
11.74 -0.146662
11.75 -0.157361
11.76 -0.167829
11.77 -0.17811
11.78 -0.188201
11.79 -0.198123
11.8 -0.207921
11.81 -0.217606
11.82 -0.227218
11.83 -0.236772
11.84 -0.246269
11.85 -0.255709
11.86 -0.26505
11.87 -0.274257
11.88 -0.28327
11.89 -0.291967
11.9 -0.300301
11.91 -0.308103
11.92 -0.315266
11.93 -0.321717
11.94 -0.327158
11.95 -0.331641
11.96 -0.334948
11.97 -0.336961
11.98 -0.337737
11.99 -0.336961
12 -0.334839
12.01 -0.331297
12.02 -0.326283
12.03 -0.320043
12.04 -0.312477
12.05 -0.303852
12.06 -0.294316
12.07 -0.283956
12.08 -0.273076
12.09 -0.261817
12.1 -0.250413
12.11 -0.239059
12.12 -0.227988
12.13 -0.217323
12.14 -0.207267
12.15 -0.197948
12.16 -0.189383
12.17 -0.181798
12.18 -0.175053
12.19 -0.169195
12.2 -0.164206
12.21 -0.159905
12.22 -0.156278
12.23 -0.1531
12.24 -0.150216
12.25 -0.147452
12.26 -0.144607
12.27 -0.141457
12.28 -0.137828
12.29 -0.133569
12.3 -0.128388
12.31 -0.122293
12.32 -0.115052
12.33 -0.106596
12.34 -0.0969784
12.35 -0.0859131
12.36 -0.0736626
12.37 -0.0601519
12.38 -0.0454132
12.39 -0.0296637
12.4 -0.0128376
12.41 0.00479462
12.42 0.0231254
12.43 0.0420499
12.44 0.0613457
12.45 0.0809052
12.46 0.100555
12.47 0.120158
12.48 0.139553
12.49 0.158654
12.5 0.177297
12.51 0.19539
12.52 0.212883
12.53 0.229545
12.54 0.245434
12.55 0.260385
12.56 0.274293
12.57 0.287187
12.58 0.298754
12.59 0.309096
12.6 0.318043
12.61 0.325383
12.62 0.331211
12.63 0.335136
12.64 0.337233
12.65 0.337397
12.66 0.335268
12.67 0.331093
12.68 0.324494
12.69 0.315548
12.7 0.304355
12.71 0.29051
12.72 0.27449
12.73 0.25613
12.74 0.235563
12.75 0.213144
12.76 0.188719
12.77 0.162847
12.78 0.135692
12.79 0.107518
12.8 0.0787505
12.81 0.0496695
12.82 0.0206616
12.83 -0.00793445
12.84 -0.035698
12.85 -0.0624399
12.86 -0.0876888
12.87 -0.111288
12.88 -0.133099
12.89 -0.152641
12.9 -0.17017
12.91 -0.185381
12.92 -0.198322
12.93 -0.209239
12.94 -0.217817
12.95 -0.224614
12.96 -0.229659
12.97 -0.233135
12.98 -0.235444
12.99 -0.23666
13 -0.237183
13.01 -0.237236
13.02 -0.237031
13.03 -0.236797
13.04 -0.236712
13.05 -0.236888
13.06 -0.237392
13.07 -0.238299
13.08 -0.239521
