C:\Users\aodrejer\Desktop\Run2\Collected_files_Run2\Pos_A1\A1_SDD1205_Li_VO2-B_p
2-Theta Angle (Degrees)
Intensity
       2000
 3.5504375E-03  0.0000000E+00
 1.0651313E-02  0.0000000E+00
 1.7752187E-02  0.0000000E+00
 2.4853062E-02  0.0000000E+00
 3.1953938E-02  0.0000000E+00
 3.9054811E-02  0.0000000E+00
 4.6155687E-02  0.0000000E+00
 5.3256564E-02  0.0000000E+00
 6.0357437E-02  0.0000000E+00
 6.7458309E-02  0.0000000E+00
 7.4559189E-02  0.0000000E+00
 8.1660062E-02  0.0000000E+00
 8.8760935E-02  0.0000000E+00
 9.5861815E-02  0.0000000E+00
 1.0296269E-01  0.0000000E+00
 1.1006356E-01  0.0000000E+00
 1.1716443E-01  0.0000000E+00
 1.2426531E-01  0.0000000E+00
 1.3136619E-01  0.0000000E+00
 1.3846706E-01  0.0000000E+00
 1.4556794E-01  0.0000000E+00
 1.5266880E-01  0.0000000E+00
 1.5976968E-01  0.0000000E+00
 1.6687056E-01  0.0000000E+00
 1.7397143E-01  0.0000000E+00
 1.8107231E-01  0.0000000E+00
 1.8817319E-01  0.0000000E+00
 1.9527406E-01  0.0000000E+00
 2.0237494E-01  0.0000000E+00
 2.0947582E-01  0.0000000E+00
 2.1657668E-01  0.0000000E+00
 2.2367756E-01  0.0000000E+00
 2.3077844E-01  0.0000000E+00
 2.3787931E-01  0.0000000E+00
 2.4498019E-01  0.0000000E+00
 2.5208107E-01  0.0000000E+00
 2.5918195E-01  0.0000000E+00
 2.6628280E-01  0.0000000E+00
 2.7338368E-01  0.0000000E+00
 2.8048456E-01  0.0000000E+00
 2.8758544E-01  0.0000000E+00
 2.9468632E-01  0.0000000E+00
 3.0178720E-01  0.0000000E+00
 3.0888805E-01  0.0000000E+00
 3.1598893E-01  0.0000000E+00
 3.2308981E-01  0.0000000E+00
 3.3019069E-01  0.0000000E+00
 3.3729157E-01  0.0000000E+00
 3.4439245E-01  0.0000000E+00
 3.5149330E-01  0.0000000E+00
 3.5859418E-01  0.0000000E+00
 3.6569506E-01  0.0000000E+00
 3.7279594E-01  0.0000000E+00
 3.7989682E-01  0.0000000E+00
 3.8699767E-01  0.0000000E+00
 3.9409855E-01  0.0000000E+00
 4.0119943E-01  0.0000000E+00
 4.0830031E-01  0.0000000E+00
 4.1540119E-01  0.0000000E+00
 4.2250207E-01  0.0000000E+00
 4.2960292E-01  0.0000000E+00
 4.3670380E-01  0.0000000E+00
 4.4380468E-01  0.0000000E+00
 4.5090556E-01  0.0000000E+00
 4.5800644E-01  0.0000000E+00
 4.6510732E-01  0.0000000E+00
 4.7220817E-01  0.0000000E+00
 4.7930905E-01  0.0000000E+00
 4.8640993E-01  0.0000000E+00
 4.9351081E-01  0.0000000E+00
 5.0061166E-01  0.0000000E+00
 5.0771254E-01  0.0000000E+00
 5.1481342E-01  0.0000000E+00
 5.2191430E-01  0.0000000E+00
 5.2901518E-01  0.0000000E+00
 5.3611606E-01  0.0000000E+00
 5.4321694E-01  0.0000000E+00
 5.5031782E-01  0.0000000E+00
 5.5741870E-01  0.0000000E+00
 5.6451958E-01  0.0000000E+00
 5.7162040E-01  0.0000000E+00
 5.7872128E-01  0.0000000E+00
 5.8582217E-01  0.0000000E+00
 5.9292305E-01  0.0000000E+00
 6.0002393E-01  0.0000000E+00
 6.0712481E-01  0.0000000E+00
 6.1422569E-01  0.0000000E+00
 6.2132657E-01  0.0000000E+00
 6.2842745E-01  0.0000000E+00
 6.3552833E-01  0.0000000E+00
 6.4262921E-01  0.0000000E+00
 6.4973009E-01  0.0000000E+00
 6.5683091E-01  0.0000000E+00
 6.6393179E-01  0.0000000E+00
 6.7103267E-01  0.0000000E+00
 6.7813355E-01  0.0000000E+00
 6.8523443E-01  0.0000000E+00
 6.9233531E-01  0.0000000E+00
 6.9943619E-01  0.0000000E+00
 7.0653707E-01  0.0000000E+00
 7.1363795E-01  0.0000000E+00
 7.2073883E-01  0.0000000E+00
 7.2783971E-01  0.0000000E+00
 7.3494053E-01  0.0000000E+00
 7.4204141E-01  0.0000000E+00
 7.4914229E-01  0.0000000E+00
 7.5624317E-01  0.0000000E+00
 7.6334405E-01  0.0000000E+00
 7.7044493E-01  0.0000000E+00
 7.7754581E-01  0.0000000E+00
 7.8464669E-01  0.0000000E+00
 7.9174757E-01  0.0000000E+00
 7.9884845E-01  0.0000000E+00
 8.0594933E-01  0.0000000E+00
 8.1305021E-01  0.0000000E+00
 8.2015103E-01  0.0000000E+00
 8.2725191E-01  0.0000000E+00
 8.3435279E-01  0.0000000E+00
 8.4145367E-01  0.0000000E+00
 8.4855455E-01  0.0000000E+00
 8.5565543E-01  0.0000000E+00
 8.6275631E-01  0.0000000E+00
 8.6985719E-01  0.0000000E+00
 8.7695807E-01  0.0000000E+00
 8.8405895E-01  0.0000000E+00
 8.9115983E-01  0.0000000E+00
 8.9826065E-01  0.0000000E+00
 9.0536153E-01  0.0000000E+00
 9.1246241E-01  0.0000000E+00
 9.1956329E-01  0.0000000E+00
 9.2666417E-01  0.0000000E+00
 9.3376505E-01  0.0000000E+00
 9.4086593E-01  0.0000000E+00
 9.4796681E-01  0.0000000E+00
 9.5506769E-01  0.0000000E+00
 9.6216857E-01  0.0000000E+00
 9.6926945E-01  0.0000000E+00
 9.7637028E-01  0.0000000E+00
 9.8347116E-01  0.0000000E+00
 9.9057204E-01  0.0000000E+00
 9.9767292E-01  0.0000000E+00
 1.0047739E+00  0.0000000E+00
 1.0118747E+00  0.0000000E+00
 1.0189755E+00  0.0000000E+00
 1.0260764E+00  0.0000000E+00
 1.0331773E+00  0.0000000E+00
 1.0402782E+00  0.0000000E+00
 1.0473790E+00  0.0000000E+00
 1.0544800E+00  0.0000000E+00
 1.0615808E+00  0.0000000E+00
 1.0686817E+00  0.0000000E+00
 1.0757825E+00  0.0000000E+00
 1.0828835E+00  0.0000000E+00
 1.0899843E+00  0.0000000E+00
 1.0970852E+00  0.0000000E+00
 1.1041861E+00  0.0000000E+00
 1.1112869E+00  0.0000000E+00
 1.1183878E+00  0.0000000E+00
 1.1254886E+00  0.0000000E+00
 1.1325896E+00  0.0000000E+00
 1.1396904E+00  0.0000000E+00
 1.1467913E+00  0.0000000E+00
 1.1538922E+00  0.0000000E+00
 1.1609931E+00  0.0000000E+00
 1.1680939E+00  0.0000000E+00
 1.1751949E+00  0.0000000E+00
 1.1822957E+00  0.0000000E+00
 1.1893965E+00  0.0000000E+00
 1.1964974E+00  0.0000000E+00
 1.2035983E+00  0.0000000E+00
 1.2106992E+00  0.0000000E+00
 1.2178000E+00  0.0000000E+00
 1.2249010E+00  0.0000000E+00
 1.2320018E+00  0.0000000E+00
 1.2391027E+00  0.0000000E+00
 1.2462035E+00  0.0000000E+00
 1.2533045E+00  0.0000000E+00
 1.2604053E+00  0.0000000E+00
 1.2675061E+00  0.0000000E+00
 1.2746071E+00  0.0000000E+00
 1.2817079E+00  0.0000000E+00
 1.2888088E+00  0.0000000E+00
 1.2959096E+00  0.0000000E+00
 1.3030106E+00  0.0000000E+00
 1.3101114E+00  0.0000000E+00
 1.3172123E+00  0.0000000E+00
 1.3243132E+00  0.0000000E+00
 1.3314141E+00  0.0000000E+00
 1.3385149E+00  0.0000000E+00
 1.3456157E+00  0.0000000E+00
 1.3527167E+00  0.0000000E+00
 1.3598175E+00  0.0000000E+00
 1.3669184E+00  0.0000000E+00
 1.3740193E+00  0.0000000E+00
 1.3811202E+00  0.0000000E+00
 1.3882210E+00  0.0000000E+00
 1.3953220E+00  0.0000000E+00
 1.4024228E+00  0.0000000E+00
 1.4095237E+00  0.0000000E+00
 1.4166245E+00  0.0000000E+00
 1.4237255E+00  0.0000000E+00
 1.4308263E+00  0.0000000E+00
 1.4379271E+00  0.0000000E+00
 1.4450281E+00  0.0000000E+00
 1.4521289E+00  0.0000000E+00
 1.4592298E+00  0.0000000E+00
 1.4663306E+00  0.0000000E+00
 1.4734316E+00  0.0000000E+00
 1.4805324E+00  0.0000000E+00
 1.4876333E+00  0.0000000E+00
 1.4947342E+00  0.0000000E+00
 1.5018351E+00  0.0000000E+00
 1.5089359E+00  0.0000000E+00
 1.5160367E+00  0.0000000E+00
 1.5231377E+00  0.0000000E+00
 1.5302385E+00  0.0000000E+00
 1.5373394E+00  0.0000000E+00
 1.5444403E+00  1.2746590E+04
 1.5515412E+00  1.2659750E+04
 1.5586420E+00  1.2584011E+04
 1.5657430E+00  1.2538941E+04
 1.5728438E+00  1.2513173E+04
 1.5799447E+00  1.2475770E+04
 1.5870456E+00  1.2439454E+04
 1.5941464E+00  1.2387464E+04
 1.6012473E+00  1.2347869E+04
 1.6083481E+00  1.2321353E+04
 1.6154491E+00  1.2304358E+04
 1.6225499E+00  1.2283026E+04
 1.6296508E+00  1.2259724E+04
 1.6367517E+00  1.2238818E+04
 1.6438526E+00  1.2219879E+04
 1.6509534E+00  1.2203123E+04
 1.6580544E+00  1.2185551E+04
 1.6651552E+00  1.2167607E+04
 1.6722560E+00  1.2145247E+04
 1.6793569E+00  1.2130788E+04
 1.6864578E+00  1.2126360E+04
 1.6935587E+00  1.2097217E+04
 1.7006595E+00  1.2057640E+04
 1.7077605E+00  1.2044553E+04
 1.7148613E+00  1.2037949E+04
 1.7219622E+00  1.2025838E+04
 1.7290630E+00  1.2036263E+04
 1.7361640E+00  1.2027421E+04
 1.7432648E+00  1.2006198E+04
 1.7503656E+00  1.1991934E+04
 1.7574666E+00  1.1977268E+04
 1.7645674E+00  1.1976684E+04
 1.7716683E+00  1.1966165E+04
 1.7787691E+00  1.1956519E+04
 1.7858701E+00  1.1947633E+04
 1.7929709E+00  1.1937091E+04
 1.8000718E+00  1.1930843E+04
 1.8071727E+00  1.1936839E+04
 1.8142736E+00  1.1949787E+04
 1.8213744E+00  1.1957705E+04
 1.8284754E+00  1.1963872E+04
 1.8355762E+00  1.1972919E+04
 1.8426770E+00  1.1988233E+04
 1.8497779E+00  1.1997696E+04
 1.8568788E+00  1.2013460E+04
 1.8639797E+00  1.2038863E+04
 1.8710805E+00  1.2069813E+04
 1.8781815E+00  1.2119125E+04
 1.8852823E+00  1.2195704E+04
 1.8923832E+00  1.2310627E+04
 1.8994840E+00  1.2452364E+04
 1.9065850E+00  1.2622725E+04
 1.9136858E+00  1.2794495E+04
 1.9207866E+00  1.2942880E+04
 1.9278876E+00  1.3045040E+04
 1.9349884E+00  1.3085087E+04
 1.9420893E+00  1.3052150E+04
 1.9491901E+00  1.2967561E+04
 1.9562911E+00  1.2864685E+04
 1.9633919E+00  1.2772712E+04
 1.9704928E+00  1.2705311E+04
 1.9775937E+00  1.2665797E+04
 1.9846946E+00  1.2655432E+04
 1.9917954E+00  1.2669992E+04
 1.9988962E+00  1.2715127E+04
 2.0059972E+00  1.2812176E+04
 2.0130980E+00  1.3001253E+04
 2.0201988E+00  1.3350528E+04
 2.0272999E+00  1.3944180E+04
 2.0344007E+00  1.4774942E+04
 2.0415015E+00  1.5692203E+04
 2.0486023E+00  1.6446520E+04
 2.0557034E+00  1.6827322E+04
 2.0628042E+00  1.6733566E+04
 2.0699050E+00  1.6196280E+04
 2.0770059E+00  1.5353374E+04
 2.0841067E+00  1.4456918E+04
 2.0912077E+00  1.3720998E+04
 2.0983086E+00  1.3233351E+04
 2.1054094E+00  1.2949329E+04
 2.1125102E+00  1.2796223E+04
 2.1196113E+00  1.2718737E+04
 2.1267121E+00  1.2686305E+04
 2.1338129E+00  1.2673557E+04
 2.1409137E+00  1.2673676E+04
 2.1480148E+00  1.2684449E+04
 2.1551156E+00  1.2692778E+04
 2.1622164E+00  1.2704020E+04
 2.1693172E+00  1.2725999E+04
 2.1764181E+00  1.2746259E+04
 2.1835191E+00  1.2767232E+04
 2.1906199E+00  1.2791229E+04
 2.1977208E+00  1.2816592E+04
 2.2048216E+00  1.2838494E+04
 2.2119226E+00  1.2860496E+04
 2.2190235E+00  1.2883291E+04
 2.2261243E+00  1.2911106E+04
 2.2332251E+00  1.2940180E+04
 2.2403259E+00  1.2968926E+04
 2.2474270E+00  1.2995438E+04
 2.2545278E+00  1.3022450E+04
 2.2616286E+00  1.3049393E+04
 2.2687294E+00  1.3079551E+04
 2.2758305E+00  1.3105848E+04
 2.2829313E+00  1.3130973E+04
 2.2900321E+00  1.3159475E+04
 2.2971330E+00  1.3200498E+04
 2.3042340E+00  1.3244950E+04
 2.3113348E+00  1.3288895E+04
 2.3184357E+00  1.3336330E+04
 2.3255365E+00  1.3395467E+04
 2.3326373E+00  1.3474868E+04
 2.3397384E+00  1.3578613E+04
 2.3468392E+00  1.3719236E+04
 2.3539400E+00  1.3892605E+04
 2.3610408E+00  1.4061684E+04
 2.3681419E+00  1.4195975E+04
 2.3752427E+00  1.4266404E+04
 2.3823435E+00  1.4266672E+04
 2.3894444E+00  1.4207650E+04
 2.3965454E+00  1.4110244E+04
 2.4036462E+00  1.4011855E+04
 2.4107471E+00  1.3932623E+04
 2.4178479E+00  1.3893889E+04
 2.4249487E+00  1.3882907E+04
 2.4320498E+00  1.3884468E+04
 2.4391506E+00  1.3907136E+04
 2.4462514E+00  1.3940126E+04
 2.4533522E+00  1.3967040E+04
 2.4604533E+00  1.3987115E+04
 2.4675541E+00  1.4011465E+04
 2.4746549E+00  1.4034778E+04
 2.4817557E+00  1.4050857E+04
 2.4888566E+00  1.4067063E+04
 2.4959576E+00  1.4082135E+04
 2.5030584E+00  1.4108289E+04
 2.5101593E+00  1.4129553E+04
 2.5172601E+00  1.4149142E+04
 2.5243611E+00  1.4171191E+04
 2.5314620E+00  1.4196712E+04
 2.5385628E+00  1.4231720E+04
 2.5456636E+00  1.4265615E+04
 2.5527647E+00  1.4300298E+04
 2.5598655E+00  1.4332349E+04
 2.5669663E+00  1.4364658E+04
 2.5740671E+00  1.4399164E+04
 2.5811679E+00  1.4439436E+04
 2.5882690E+00  1.4482032E+04
 2.5953698E+00  1.4523403E+04
 2.6024706E+00  1.4566736E+04
 2.6095715E+00  1.4616323E+04
 2.6166725E+00  1.4658955E+04
 2.6237733E+00  1.4711568E+04
 2.6308742E+00  1.4763380E+04
 2.6379750E+00  1.4822379E+04
 2.6450758E+00  1.4878494E+04
 2.6521769E+00  1.4939378E+04
 2.6592777E+00  1.5002324E+04
 2.6663785E+00  1.5051847E+04
 2.6734793E+00  1.5100279E+04
 2.6805804E+00  1.5155227E+04
 2.6876812E+00  1.5198602E+04
 2.6947820E+00  1.5236663E+04
 2.7018828E+00  1.5277159E+04
 2.7089839E+00  1.5322237E+04
 2.7160847E+00  1.5366430E+04
 2.7231855E+00  1.5411293E+04
 2.7302864E+00  1.5461000E+04
 2.7373872E+00  1.5515530E+04
 2.7444882E+00  1.5563679E+04
 2.7515891E+00  1.5609984E+04
 2.7586899E+00  1.5664431E+04
 2.7657907E+00  1.5712518E+04
 2.7728918E+00  1.5766374E+04
 2.7799926E+00  1.5823423E+04
 2.7870934E+00  1.5870257E+04
 2.7941942E+00  1.5908348E+04
 2.8012953E+00  1.5944378E+04
 2.8083961E+00  1.5983341E+04
 2.8154969E+00  1.6025732E+04
 2.8225977E+00  1.6068784E+04
 2.8296986E+00  1.6117158E+04
 2.8367996E+00  1.6160280E+04
 2.8439004E+00  1.6202215E+04
 2.8510013E+00  1.6242996E+04
 2.8581021E+00  1.6290854E+04
 2.8652031E+00  1.6341094E+04
 2.8723040E+00  1.6388752E+04
 2.8794048E+00  1.6439914E+04
 2.8865056E+00  1.6495459E+04
 2.8936064E+00  1.6551969E+04
 2.9007075E+00  1.6602816E+04
 2.9078083E+00  1.6651682E+04
 2.9149091E+00  1.6711557E+04
 2.9220099E+00  1.6768395E+04
 2.9291110E+00  1.6823061E+04
 2.9362118E+00  1.6875553E+04
 2.9433126E+00  1.6926570E+04
 2.9504135E+00  1.6981227E+04
 2.9575145E+00  1.7040391E+04
 2.9646153E+00  1.7099055E+04
 2.9717162E+00  1.7146186E+04
 2.9788170E+00  1.7193738E+04
 2.9859178E+00  1.7243000E+04
 2.9930189E+00  1.7300533E+04
 3.0001197E+00  1.7359051E+04
 3.0072205E+00  1.7414121E+04
 3.0143213E+00  1.7460438E+04
 3.0214224E+00  1.7505635E+04
 3.0285232E+00  1.7556764E+04
 3.0356240E+00  1.7613541E+04
 3.0427248E+00  1.7664271E+04
 3.0498259E+00  1.7716281E+04
 3.0569267E+00  1.7763609E+04
 3.0640275E+00  1.7799785E+04
 3.0711284E+00  1.7843654E+04
 3.0782292E+00  1.7887918E+04
 3.0853302E+00  1.7938666E+04
 3.0924311E+00  1.7988377E+04
 3.0995319E+00  1.8040414E+04
 3.1066327E+00  1.8089783E+04
 3.1137338E+00  1.8129463E+04
 3.1208346E+00  1.8170791E+04
 3.1279354E+00  1.8213566E+04
 3.1350362E+00  1.8256734E+04
 3.1421371E+00  1.8303643E+04
 3.1492381E+00  1.8349207E+04
 3.1563389E+00  1.8393221E+04
 3.1634398E+00  1.8439922E+04
 3.1705406E+00  1.8486760E+04
 3.1776416E+00  1.8535752E+04
 3.1847425E+00  1.8587520E+04
 3.1918433E+00  1.8642834E+04
 3.1989441E+00  1.8694303E+04
 3.2060452E+00  1.8730252E+04
 3.2131460E+00  1.8753393E+04
 3.2202468E+00  1.8764949E+04
 3.2273476E+00  1.8775768E+04
 3.2344484E+00  1.8785977E+04
 3.2415495E+00  1.8792398E+04
 3.2486503E+00  1.8817990E+04
 3.2557511E+00  1.8839861E+04
 3.2628520E+00  1.8864477E+04
 3.2699530E+00  1.8900211E+04
 3.2770538E+00  1.8936611E+04
 3.2841547E+00  1.8977768E+04
 3.2912555E+00  1.9031523E+04
 3.2983563E+00  1.9109006E+04
 3.3054574E+00  1.9222379E+04
 3.3125582E+00  1.9390107E+04
 3.3196590E+00  1.9672869E+04
 3.3267598E+00  2.0181658E+04
 3.3338609E+00  2.1157156E+04
 3.3409617E+00  2.2970705E+04
 3.3480625E+00  2.6034545E+04
 3.3551633E+00  3.0393547E+04
 3.3622644E+00  3.5360875E+04
 3.3693652E+00  3.9630023E+04
 3.3764660E+00  4.2081652E+04
 3.3835669E+00  4.2093902E+04
 3.3906677E+00  3.9630125E+04
 3.3977687E+00  3.5413246E+04
 3.4048696E+00  3.0662563E+04
 3.4119704E+00  2.6580957E+04
 3.4190712E+00  2.3750525E+04
 3.4261723E+00  2.2012824E+04
 3.4332731E+00  2.0983801E+04
 3.4403739E+00  2.0341141E+04
 3.4474747E+00  1.9903986E+04
 3.4545758E+00  1.9569920E+04
 3.4616766E+00  1.9289891E+04
 3.4687774E+00  1.9044588E+04
 3.4758782E+00  1.8810447E+04
 3.4829791E+00  1.8587338E+04
 3.4900801E+00  1.8383021E+04
 3.4971809E+00  1.8194502E+04
 3.5042818E+00  1.8032313E+04
 3.5113826E+00  1.7893547E+04
 3.5184836E+00  1.7762811E+04
 3.5255845E+00  1.7616055E+04
 3.5326853E+00  1.7445340E+04
 3.5397861E+00  1.7226373E+04
 3.5468869E+00  1.6960111E+04
 3.5539880E+00  1.6662797E+04
 3.5610888E+00  1.6350966E+04
 3.5681896E+00  1.6054971E+04
 3.5752904E+00  1.5784100E+04
 3.5823915E+00  1.5535497E+04
 3.5894923E+00  1.5313117E+04
 3.5965931E+00  1.5098108E+04
 3.6036940E+00  1.4894687E+04
 3.6107950E+00  1.4693534E+04
 3.6178958E+00  1.4497203E+04
 3.6249967E+00  1.4305791E+04
 3.6320975E+00  1.4116406E+04
 3.6391983E+00  1.3922847E+04
 3.6462994E+00  1.3740407E+04
 3.6534002E+00  1.3563628E+04
 3.6605010E+00  1.3384728E+04
 3.6676018E+00  1.3211306E+04
 3.6747029E+00  1.3046930E+04
 3.6818037E+00  1.2886037E+04
 3.6889045E+00  1.2724602E+04
 3.6960053E+00  1.2576161E+04
 3.7031062E+00  1.2438235E+04
 3.7102072E+00  1.2315410E+04
 3.7173080E+00  1.2200922E+04
 3.7244089E+00  1.2094864E+04
 3.7315097E+00  1.1994234E+04
 3.7386107E+00  1.1885897E+04
 3.7457116E+00  1.1761479E+04
 3.7528124E+00  1.1627143E+04
 3.7599132E+00  1.1489135E+04
 3.7670143E+00  1.1357495E+04
 3.7741151E+00  1.1252303E+04
 3.7812159E+00  1.1184075E+04
 3.7883167E+00  1.1140119E+04
 3.7954175E+00  1.1098258E+04
 3.8025186E+00  1.1057123E+04
 3.8096194E+00  1.0999340E+04
 3.8167202E+00  1.0931846E+04
 3.8238211E+00  1.0859636E+04
 3.8309221E+00  1.0794730E+04
 3.8380229E+00  1.0751164E+04
 3.8451238E+00  1.0732446E+04
 3.8522246E+00  1.0709105E+04
 3.8593256E+00  1.0659742E+04
 3.8664265E+00  1.0562651E+04
 3.8735273E+00  1.0414837E+04
 3.8806281E+00  1.0214712E+04
 3.8877289E+00  9.9898242E+03
 3.8948300E+00  9.7707168E+03
 3.9019308E+00  9.5700557E+03
 3.9090316E+00  9.4007520E+03
 3.9161325E+00  9.2696289E+03
 3.9232335E+00  9.1792227E+03
 3.9303343E+00  9.1207529E+03
 3.9374352E+00  9.1018477E+03
 3.9445360E+00  9.1312705E+03
 3.9516368E+00  9.2315762E+03
 3.9587379E+00  9.4562188E+03
 3.9658387E+00  9.8763652E+03
 3.9729395E+00  1.0548819E+04
 3.9800403E+00  1.1450443E+04
 3.9871414E+00  1.2421402E+04
 3.9942422E+00  1.3221854E+04
 4.0013433E+00  1.3660875E+04
 4.0084438E+00  1.3642686E+04
 4.0155449E+00  1.3203778E+04
 4.0226455E+00  1.2478281E+04
 4.0297465E+00  1.1658479E+04
 4.0368476E+00  1.0904311E+04
 4.0439482E+00  1.0291347E+04
 4.0510492E+00  9.7855117E+03
 4.0581498E+00  9.3472725E+03
 4.0652509E+00  8.9879590E+03
 4.0723519E+00  8.7323281E+03
 4.0794525E+00  8.5957090E+03
 4.0865536E+00  8.5827080E+03
 4.0936546E+00  8.6767617E+03
 4.1007552E+00  8.8180225E+03
 4.1078563E+00  8.9384004E+03
 4.1149569E+00  8.9692627E+03
 4.1220579E+00  8.8887275E+03
 4.1291590E+00  8.6916768E+03
 4.1362596E+00  8.4196777E+03
 4.1433606E+00  8.1318306E+03
 4.1504612E+00  7.8802607E+03
 4.1575623E+00  7.6844292E+03
 4.1646633E+00  7.5451587E+03
 4.1717639E+00  7.4477349E+03
 4.1788650E+00  7.3741226E+03
 4.1859660E+00  7.3124697E+03
 4.1930666E+00  7.2624048E+03
 4.2001677E+00  7.2145542E+03
 4.2072682E+00  7.1718506E+03
 4.2143693E+00  7.1360244E+03
 4.2214704E+00  7.1068628E+03
 4.2285709E+00  7.0749873E+03
 4.2356720E+00  7.0413691E+03
 4.2427726E+00  7.0085313E+03
 4.2498736E+00  6.9797827E+03
 4.2569747E+00  6.9513843E+03
 4.2640753E+00  6.9289399E+03
 4.2711763E+00  6.9058809E+03
 4.2782769E+00  6.8787949E+03
 4.2853780E+00  6.8586387E+03
 4.2924790E+00  6.8427578E+03
 4.2995796E+00  6.8241235E+03
 4.3066807E+00  6.8069780E+03
 4.3137817E+00  6.7915137E+03
 4.3208823E+00  6.7733706E+03
 4.3279834E+00  6.7617197E+03
 4.3350840E+00  6.7538228E+03
 4.3421850E+00  6.7465400E+03
 4.3492861E+00  6.7421821E+03
 4.3563867E+00  6.7433135E+03
 4.3634877E+00  6.7529849E+03
 4.3705883E+00  6.7675342E+03
 4.3776894E+00  6.7979385E+03
 4.3847904E+00  6.8411924E+03
 4.3918910E+00  6.9050269E+03
 4.3989921E+00  7.0017676E+03
 4.4060931E+00  7.1349624E+03
 4.4131937E+00  7.3305615E+03
 4.4202948E+00  7.6230659E+03
 4.4273953E+00  8.0492227E+03
 4.4344964E+00  8.6300605E+03
 4.4415975E+00  9.3327012E+03
 4.4486980E+00  1.0080846E+04
 4.4557991E+00  1.0797563E+04
 4.4628997E+00  1.1395200E+04
 4.4700007E+00  1.1776220E+04
 4.4771018E+00  1.1857296E+04
 4.4842024E+00  1.1598591E+04
 4.4913034E+00  1.1049109E+04
 4.4984045E+00  1.0298583E+04
 4.5055051E+00  9.4466035E+03
 4.5126061E+00  8.6107598E+03
 4.5197067E+00  7.9059072E+03
 4.5268078E+00  7.3850195E+03
 4.5339088E+00  7.0374463E+03
 4.5410094E+00  6.8125190E+03
 4.5481105E+00  6.6626528E+03
 4.5552111E+00  6.5624927E+03
 4.5623121E+00  6.4936440E+03
 4.5694132E+00  6.4431558E+03
 4.5765138E+00  6.4035923E+03
 4.5836148E+00  6.3690498E+03
 4.5907159E+00  6.3375337E+03
 4.5978165E+00  6.3102285E+03
 4.6049175E+00  6.2822827E+03
 4.6120181E+00  6.2572710E+03
 4.6191192E+00  6.2378418E+03
 4.6262202E+00  6.2182983E+03
 4.6333208E+00  6.1973311E+03
 4.6404219E+00  6.1744458E+03
 4.6475224E+00  6.1575117E+03
 4.6546235E+00  6.1410127E+03
 4.6617246E+00  6.1277495E+03
 4.6688251E+00  6.1144810E+03
 4.6759262E+00  6.1019746E+03
 4.6830268E+00  6.0941445E+03
 4.6901278E+00  6.0876636E+03
 4.6972289E+00  6.0837798E+03
 4.7043295E+00  6.0880815E+03
 4.7114305E+00  6.0986060E+03
 4.7185316E+00  6.1194341E+03
 4.7256322E+00  6.1519165E+03
 4.7327332E+00  6.1784063E+03
 4.7398338E+00  6.2015596E+03
 4.7469349E+00  6.2015103E+03
 4.7540359E+00  6.1843252E+03
 4.7611365E+00  6.1569927E+03
 4.7682376E+00  6.1142588E+03
 4.7753382E+00  6.0684717E+03
 4.7824392E+00  6.0331411E+03
 4.7895403E+00  5.9980459E+03
 4.7966409E+00  5.9476143E+03
 4.8037419E+00  5.8876831E+03
 4.8108430E+00  5.8352280E+03
 4.8179436E+00  5.7972012E+03
 4.8250446E+00  5.7660205E+03
 4.8321452E+00  5.7514507E+03
 4.8392463E+00  5.7414351E+03
 4.8463473E+00  5.7332271E+03
 4.8534479E+00  5.7266509E+03
 4.8605490E+00  5.7235913E+03
 4.8676496E+00  5.7215293E+03
 4.8747506E+00  5.7220435E+03
 4.8818517E+00  5.7254351E+03
 4.8889523E+00  5.7293740E+03
 4.8960533E+00  5.7224458E+03
 4.9031544E+00  5.7062051E+03
 4.9102550E+00  5.6857710E+03
 4.9173560E+00  5.6598765E+03
 4.9244566E+00  5.6370933E+03
 4.9315577E+00  5.6131885E+03
 4.9386587E+00  5.5921719E+03
 4.9457593E+00  5.5740132E+03
 4.9528604E+00  5.5612544E+03
 4.9599609E+00  5.5552612E+03
 4.9670620E+00  5.5551787E+03
 4.9741631E+00  5.5648687E+03
 4.9812636E+00  5.5834058E+03
 4.9883647E+00  5.6158789E+03
 4.9954658E+00  5.6659409E+03
 5.0025663E+00  5.7397734E+03
 5.0096674E+00  5.8277686E+03
 5.0167680E+00  5.9213140E+03
 5.0238690E+00  6.0002817E+03
 5.0309701E+00  6.0421191E+03
 5.0380707E+00  6.0343984E+03
 5.0451717E+00  5.9797007E+03
 5.0522723E+00  5.8898516E+03
 5.0593734E+00  5.7863125E+03
 5.0664744E+00  5.6855786E+03
 5.0735750E+00  5.6033506E+03
 5.0806761E+00  5.5465732E+03
 5.0877767E+00  5.5045283E+03
 5.0948777E+00  5.4759155E+03
 5.1019788E+00  5.4555811E+03
 5.1090794E+00  5.4443662E+03
 5.1161804E+00  5.4380444E+03
 5.1232815E+00  5.4321284E+03
 5.1303821E+00  5.4277808E+03
 5.1374831E+00  5.4273896E+03
 5.1445837E+00  5.4259189E+03
 5.1516848E+00  5.4323164E+03
 5.1587858E+00  5.4433311E+03
 5.1658864E+00  5.4586396E+03
 5.1729875E+00  5.4801113E+03
 5.1800880E+00  5.5115762E+03
 5.1871891E+00  5.5454609E+03
 5.1942902E+00  5.5739941E+03
 5.2013907E+00  5.5984390E+03
 5.2084918E+00  5.6105098E+03
 5.2155929E+00  5.6133301E+03
 5.2226934E+00  5.6049370E+03
 5.2297945E+00  5.5949785E+03
 5.2368951E+00  5.5963135E+03
 5.2439961E+00  5.6154385E+03
 5.2510972E+00  5.6503584E+03
 5.2581978E+00  5.6943857E+03
 5.2652988E+00  5.7356362E+03
 5.2723994E+00  5.7688613E+03
 5.2795005E+00  5.7795015E+03
 5.2866015E+00  5.7632666E+03
 5.2937021E+00  5.7339731E+03
 5.3008032E+00  5.7051113E+03
 5.3079042E+00  5.6818076E+03
 5.3150048E+00  5.6752700E+03
 5.3221059E+00  5.6899600E+03
 5.3292065E+00  5.7202920E+03
 5.3363075E+00  5.7607695E+03
 5.3434086E+00  5.8089209E+03
 5.3505092E+00  5.8507803E+03
 5.3576102E+00  5.8839229E+03
 5.3647108E+00  5.8994624E+03
 5.3718119E+00  5.9034624E+03
 5.3789129E+00  5.9024097E+03
 5.3860135E+00  5.8978369E+03
 5.3931146E+00  5.8931138E+03
 5.4002156E+00  5.9033237E+03
 5.4073162E+00  5.9279546E+03
 5.4144173E+00  5.9579653E+03
 5.4215178E+00  5.9935200E+03
 5.4286189E+00  6.0345488E+03
 5.4357200E+00  6.0806699E+03
 5.4428205E+00  6.1328516E+03
 5.4499216E+00  6.1887827E+03
 5.4570222E+00  6.2519209E+03
 5.4641232E+00  6.3175669E+03
 5.4712243E+00  6.3865693E+03
 5.4783249E+00  6.4597715E+03
 5.4854259E+00  6.5395083E+03
 5.4925265E+00  6.6271123E+03
 5.4996276E+00  6.7201729E+03
 5.5067286E+00  6.8189243E+03
 5.5138292E+00  6.9242104E+03
 5.5209303E+00  7.0319785E+03
 5.5280313E+00  7.1443774E+03
 5.5351319E+00  7.2672725E+03
 5.5422330E+00  7.4079048E+03
 5.5493336E+00  7.5664038E+03
 5.5564346E+00  7.7379805E+03
 5.5635357E+00  7.9143364E+03
 5.5706363E+00  8.0841172E+03
 5.5777373E+00  8.2439131E+03
 5.5848379E+00  8.3859268E+03
 5.5919390E+00  8.5078838E+03
 5.5990400E+00  8.6155566E+03
 5.6061406E+00  8.7184307E+03
 5.6132417E+00  8.8240098E+03
 5.6203427E+00  8.9308076E+03
 5.6274433E+00  9.0341768E+03
 5.6345444E+00  9.1302314E+03
 5.6416450E+00  9.2193418E+03
 5.6487460E+00  9.3043369E+03
 5.6558471E+00  9.3784150E+03
 5.6629477E+00  9.4425098E+03
 5.6700487E+00  9.4991719E+03
 5.6771493E+00  9.5409590E+03
 5.6842504E+00  9.5768428E+03
 5.6913514E+00  9.6032441E+03
 5.6984520E+00  9.6199014E+03
 5.7055531E+00  9.6239688E+03
 5.7126541E+00  9.6152480E+03
 5.7197547E+00  9.5948057E+03
 5.7268558E+00  9.5712451E+03
 5.7339563E+00  9.5504258E+03
 5.7410574E+00  9.5291992E+03
 5.7481585E+00  9.5172012E+03
 5.7552590E+00  9.5139336E+03
 5.7623601E+00  9.5235303E+03
 5.7694607E+00  9.5481787E+03
 5.7765617E+00  9.5754434E+03
 5.7836628E+00  9.5992148E+03
 5.7907634E+00  9.5995215E+03
 5.7978644E+00  9.5678740E+03
 5.8049655E+00  9.5003477E+03
 5.8120661E+00  9.4080439E+03
 5.8191671E+00  9.2955801E+03
 5.8262677E+00  9.1773477E+03
 5.8333688E+00  9.0729814E+03
 5.8404698E+00  8.9994805E+03
 5.8475704E+00  8.9849111E+03
 5.8546715E+00  9.0531777E+03
 5.8617721E+00  9.2506553E+03
 5.8688731E+00  9.6376602E+03
 5.8759742E+00  1.0261030E+04
 5.8830748E+00  1.1102401E+04
 5.8901758E+00  1.2020571E+04
 5.8972769E+00  1.2792979E+04
 5.9043775E+00  1.3207425E+04
 5.9114785E+00  1.3142814E+04
 5.9185791E+00  1.2606771E+04
 5.9256802E+00  1.1744370E+04
 5.9327812E+00  1.0759870E+04
 5.9398818E+00  9.8612764E+03
 5.9469829E+00  9.1727109E+03
 5.9540834E+00  8.6928184E+03
 5.9611845E+00  8.3719238E+03
 5.9682856E+00  8.1484067E+03
 5.9753861E+00  7.9881113E+03
 5.9824872E+00  7.8631157E+03
 5.9895878E+00  7.7627095E+03
 5.9966888E+00  7.6755791E+03
 6.0037899E+00  7.6000820E+03
 6.0108905E+00  7.5330552E+03
 6.0179915E+00  7.4728521E+03
 6.0250926E+00  7.4212417E+03
 6.0321932E+00  7.3747651E+03
 6.0392942E+00  7.3330483E+03
 6.0463948E+00  7.2945063E+03
 6.0534959E+00  7.2574023E+03
 6.0605969E+00  7.2224839E+03
 6.0676975E+00  7.1870225E+03
 6.0747986E+00  7.1496772E+03
 6.0818992E+00  7.1119746E+03
 6.0890002E+00  7.0770864E+03
 6.0961013E+00  7.0412227E+03
 6.1032019E+00  7.0092090E+03
 6.1103029E+00  6.9836558E+03
 6.1174040E+00  6.9610093E+03
 6.1245046E+00  6.9427949E+03
 6.1316056E+00  6.9289014E+03
 6.1387062E+00  6.9291943E+03
 6.1458073E+00  6.9361943E+03
 6.1529083E+00  6.9570562E+03
 6.1600089E+00  6.9843726E+03
 6.1671100E+00  7.0051377E+03
 6.1742105E+00  7.0152715E+03
 6.1813116E+00  7.0139790E+03
 6.1884127E+00  7.0070952E+03
 6.1955132E+00  6.9888462E+03
 6.2026143E+00  6.9662813E+03
 6.2097154E+00  6.9497896E+03
 6.2168159E+00  6.9383804E+03
 6.2239170E+00  6.9360054E+03
 6.2310176E+00  6.9414717E+03
 6.2381186E+00  6.9482607E+03
 6.2452197E+00  6.9407959E+03
 6.2523203E+00  6.9136528E+03
 6.2594213E+00  6.8643984E+03
 6.2665219E+00  6.7974570E+03
 6.2736230E+00  6.7184902E+03
 6.2807240E+00  6.6380645E+03
 6.2878246E+00  6.5687876E+03
 6.2949257E+00  6.5136758E+03
 6.3020267E+00  6.4789453E+03
 6.3091273E+00  6.4610264E+03
 6.3162284E+00  6.4520137E+03
 6.3233290E+00  6.4519692E+03
 6.3304300E+00  6.4568843E+03
 6.3375311E+00  6.4609321E+03
 6.3446317E+00  6.4687969E+03
 6.3517327E+00  6.4865713E+03
 6.3588333E+00  6.5223550E+03
 6.3659344E+00  6.5899204E+03
 6.3730354E+00  6.7121147E+03
 6.3801360E+00  6.9187041E+03
 6.3872371E+00  7.2586714E+03
 6.3943377E+00  7.8118394E+03
 6.4014387E+00  8.6678027E+03
 6.4085398E+00  9.8745576E+03
 6.4156404E+00  1.1381429E+04
 6.4227414E+00  1.2972761E+04
 6.4298425E+00  1.4301246E+04
 6.4369431E+00  1.5070143E+04
 6.4440441E+00  1.5096404E+04
 6.4511447E+00  1.4383606E+04
 6.4582458E+00  1.3116917E+04
 6.4653468E+00  1.1623675E+04
 6.4724474E+00  1.0221381E+04
 6.4795485E+00  9.1059180E+03
 6.4866490E+00  8.3154063E+03
 6.4937501E+00  7.7928125E+03
 6.5008512E+00  7.4681582E+03
 6.5079517E+00  7.2771777E+03
 6.5150528E+00  7.1703682E+03
 6.5221539E+00  7.1126611E+03
 6.5292544E+00  7.0856641E+03
 6.5363555E+00  7.0752935E+03
 6.5434561E+00  7.0652925E+03
 6.5505571E+00  7.0507803E+03
 6.5576582E+00  7.0275396E+03
 6.5647588E+00  6.9948335E+03
 6.5718598E+00  6.9508145E+03
 6.5789604E+00  6.8968940E+03
 6.5860615E+00  6.8392305E+03
 6.5931625E+00  6.7765928E+03
 6.6002631E+00  6.7137861E+03
 6.6073642E+00  6.6539092E+03
 6.6144652E+00  6.5989136E+03
 6.6215658E+00  6.5435503E+03
 6.6286669E+00  6.4940708E+03
 6.6357675E+00  6.4539570E+03
 6.6428685E+00  6.4176885E+03
 6.6499696E+00  6.3862744E+03
 6.6570702E+00  6.3572622E+03
 6.6641712E+00  6.3403921E+03
 6.6712718E+00  6.3385044E+03
 6.6783729E+00  6.3521797E+03
 6.6854739E+00  6.3813081E+03
 6.6925745E+00  6.4355132E+03
 6.6996756E+00  6.5129346E+03
 6.7067766E+00  6.5987515E+03
 6.7138772E+00  6.6792046E+03
 6.7209783E+00  6.7416753E+03
 6.7280788E+00  6.7812236E+03
 6.7351799E+00  6.7985532E+03
 6.7422810E+00  6.7966621E+03
 6.7493815E+00  6.7729214E+03
 6.7564826E+00  6.7297476E+03
 6.7635832E+00  6.6689839E+03
 6.7706842E+00  6.5912505E+03
 6.7777853E+00  6.5016904E+03
 6.7848859E+00  6.4085820E+03
 6.7919869E+00  6.3290059E+03
 6.7990875E+00  6.2713481E+03
 6.8061886E+00  6.2283701E+03
 6.8132896E+00  6.1950112E+03
 6.8203902E+00  6.1723613E+03
 6.8274913E+00  6.1495176E+03
 6.8345923E+00  6.1292080E+03
 6.8416929E+00  6.1149346E+03
 6.8487940E+00  6.1080547E+03
 6.8558946E+00  6.0994512E+03
 6.8629956E+00  6.0892041E+03
 6.8700967E+00  6.0740928E+03
 6.8771973E+00  6.0549697E+03
 6.8842983E+00  6.0311431E+03
 6.8913989E+00  6.0080288E+03
 6.8985000E+00  5.9879468E+03
 6.9056010E+00  5.9805400E+03
 6.9127016E+00  5.9838345E+03
 6.9198027E+00  6.0033018E+03
 6.9269037E+00  6.0422930E+03
 6.9340043E+00  6.1007437E+03
 6.9411054E+00  6.1768398E+03
 6.9482059E+00  6.2667798E+03
 6.9553070E+00  6.3660020E+03
 6.9624081E+00  6.4572236E+03
 6.9695086E+00  6.5306387E+03
 6.9766097E+00  6.5732573E+03
 6.9837103E+00  6.5683486E+03
 6.9908113E+00  6.5210146E+03
 6.9979124E+00  6.4381470E+03
 7.0050130E+00  6.3330469E+03
 7.0121140E+00  6.2178984E+03
 7.0192151E+00  6.1108647E+03
 7.0263157E+00  6.0205742E+03
 7.0334167E+00  5.9501357E+03
 7.0405173E+00  5.8980991E+03
 7.0476184E+00  5.8648945E+03
 7.0547194E+00  5.8463726E+03
 7.0618200E+00  5.8362363E+03
 7.0689211E+00  5.8356211E+03
 7.0760217E+00  5.8464932E+03
 7.0831227E+00  5.8755454E+03
 7.0902238E+00  5.9217280E+03
 7.0973244E+00  5.9923022E+03
 7.1044254E+00  6.0769321E+03
 7.1115265E+00  6.1639585E+03
 7.1186271E+00  6.2371221E+03
 7.1257281E+00  6.2796895E+03
 7.1328287E+00  6.2771685E+03
 7.1399298E+00  6.2329595E+03
 7.1470308E+00  6.1526055E+03
 7.1541314E+00  6.0544199E+03
 7.1612325E+00  5.9614390E+03
 7.1683331E+00  5.8832715E+03
 7.1754341E+00  5.8226426E+03
 7.1825352E+00  5.7771392E+03
 7.1896358E+00  5.7393286E+03
 7.1967368E+00  5.7054751E+03
 7.2038374E+00  5.6737163E+03
 7.2109385E+00  5.6448921E+03
 7.2180395E+00  5.6134937E+03
 7.2251401E+00  5.5868701E+03
 7.2322412E+00  5.5637393E+03
 7.2393422E+00  5.5420776E+03
 7.2464428E+00  5.5216855E+03
 7.2535439E+00  5.5111709E+03
 7.2606444E+00  5.5067485E+03
 7.2677455E+00  5.5005518E+03
 7.2748466E+00  5.4931816E+03
 7.2819471E+00  5.4863325E+03
 7.2890482E+00  5.4779214E+03
 7.2961488E+00  5.4663755E+03
 7.3032498E+00  5.4570913E+03
 7.3103509E+00  5.4491973E+03
 7.3174515E+00  5.4421104E+03
 7.3245525E+00  5.4379341E+03
 7.3316536E+00  5.4364536E+03
 7.3387542E+00  5.4394263E+03
 7.3458552E+00  5.4424736E+03
 7.3529558E+00  5.4476245E+03
 7.3600569E+00  5.4557959E+03
 7.3671579E+00  5.4688999E+03
 7.3742585E+00  5.4805889E+03
 7.3813596E+00  5.4922061E+03
 7.3884602E+00  5.4957163E+03
 7.3955612E+00  5.4941870E+03
 7.4026623E+00  5.4909976E+03
 7.4097629E+00  5.4839971E+03
 7.4168639E+00  5.4776157E+03
 7.4239650E+00  5.4754380E+03
 7.4310656E+00  5.4843647E+03
 7.4381666E+00  5.5094360E+03
 7.4452672E+00  5.5587031E+03
 7.4523683E+00  5.6347026E+03
 7.4594693E+00  5.7439180E+03
 7.4665699E+00  5.8870278E+03
 7.4736710E+00  6.0571348E+03
 7.4807715E+00  6.2473286E+03
 7.4878726E+00  6.4414316E+03
 7.4949737E+00  6.6174819E+03
 7.5020742E+00  6.7462378E+03
 7.5091753E+00  6.8070625E+03
 7.5162764E+00  6.7945415E+03
 7.5233769E+00  6.7207319E+03
 7.5304780E+00  6.6220195E+03
 7.5375786E+00  6.5443110E+03
 7.5446796E+00  6.5407314E+03
 7.5517807E+00  6.6581802E+03
 7.5588813E+00  6.9203979E+03
 7.5659823E+00  7.3212915E+03
 7.5730829E+00  7.8381030E+03
 7.5801840E+00  8.4232529E+03
 7.5872850E+00  9.0033203E+03
 7.5943856E+00  9.4851895E+03
 7.6014867E+00  9.7705576E+03
 7.6085873E+00  9.8015625E+03
 7.6156883E+00  9.5744990E+03
 7.6227894E+00  9.1314111E+03
 7.6298900E+00  8.5603486E+03
 7.6369910E+00  7.9516826E+03
 7.6440921E+00  7.3862813E+03
 7.6511927E+00  6.9158735E+03
 7.6582937E+00  6.5381172E+03
 7.6653943E+00  6.2412905E+03
 7.6724954E+00  6.0127578E+03
 7.6795964E+00  5.8375649E+03
 7.6866970E+00  5.7033887E+03
 7.6937981E+00  5.6053896E+03
 7.7008986E+00  5.5352075E+03
 7.7079997E+00  5.4824497E+03
 7.7151008E+00  5.4383359E+03
 7.7222013E+00  5.4011401E+03
 7.7293024E+00  5.3717412E+03
 7.7364035E+00  5.3508394E+03
 7.7435040E+00  5.3317520E+03
 7.7506051E+00  5.3158071E+03
 7.7577057E+00  5.2993394E+03
 7.7648067E+00  5.2864556E+03
 7.7719078E+00  5.2770259E+03
 7.7790084E+00  5.2726626E+03
 7.7861094E+00  5.2660713E+03
 7.7932100E+00  5.2635254E+03
 7.8003111E+00  5.2601001E+03
 7.8074121E+00  5.2566289E+03
 7.8145127E+00  5.2567100E+03
 7.8216138E+00  5.2573560E+03
 7.8287148E+00  5.2605142E+03
 7.8358154E+00  5.2645342E+03
 7.8429165E+00  5.2786694E+03
 7.8500171E+00  5.3042681E+03
 7.8571181E+00  5.3505728E+03
 7.8642192E+00  5.4168257E+03
 7.8713198E+00  5.4946226E+03
 7.8784208E+00  5.5765752E+03
 7.8855214E+00  5.6394678E+03
 7.8926225E+00  5.6688159E+03
 7.8997235E+00  5.6538101E+03
 7.9068241E+00  5.5993286E+03
 7.9139252E+00  5.5119414E+03
 7.9210262E+00  5.4142251E+03
 7.9281268E+00  5.3238936E+03
 7.9352279E+00  5.2543755E+03
 7.9423285E+00  5.2104517E+03
 7.9494295E+00  5.1865928E+03
 7.9565306E+00  5.1856919E+03
 7.9636312E+00  5.2029331E+03
 7.9707322E+00  5.2393809E+03
 7.9778328E+00  5.2896494E+03
 7.9849339E+00  5.3426348E+03
 7.9920349E+00  5.3952676E+03
 7.9991355E+00  5.4337495E+03
 8.0062361E+00  5.4492310E+03
 8.0133371E+00  5.4378901E+03
 8.0204382E+00  5.4026035E+03
 8.0275393E+00  5.3506943E+03
 8.0346403E+00  5.2876099E+03
 8.0417404E+00  5.2202681E+03
 8.0488415E+00  5.1632891E+03
 8.0559425E+00  5.1162764E+03
 8.0630436E+00  5.0846201E+03
 8.0701447E+00  5.0672803E+03
 8.0772457E+00  5.0664224E+03
 8.0843458E+00  5.0810796E+03
 8.0914469E+00  5.1066714E+03
 8.0985479E+00  5.1302651E+03
 8.1056490E+00  5.1455757E+03
 8.1127501E+00  5.1515137E+03
 8.1198502E+00  5.1472144E+03
 8.1269512E+00  5.1396782E+03
 8.1340523E+00  5.1430137E+03
 8.1411533E+00  5.1625469E+03
 8.1482544E+00  5.2066143E+03
 8.1553545E+00  5.2747344E+03
 8.1624556E+00  5.3529229E+03
 8.1695566E+00  5.4175996E+03
 8.1766577E+00  5.4545059E+03
 8.1837587E+00  5.4508652E+03
 8.1908588E+00  5.4050293E+03
 8.1979599E+00  5.3206392E+03
 8.2050610E+00  5.2153120E+03
 8.2121620E+00  5.1048550E+03
 8.2192631E+00  5.0029185E+03
 8.2263632E+00  4.9130386E+03
 8.2334642E+00  4.8415234E+03
 8.2405653E+00  4.7830269E+03
 8.2476664E+00  4.7384761E+03
 8.2547674E+00  4.7041318E+03
 8.2618675E+00  4.6775693E+03
 8.2689686E+00  4.6624580E+03
 8.2760696E+00  4.6527476E+03
 8.2831707E+00  4.6490864E+03
 8.2902718E+00  4.6459185E+03
 8.2973728E+00  4.6499756E+03
 8.3044729E+00  4.6584575E+03
 8.3115740E+00  4.6569028E+03
 8.3186750E+00  4.6608584E+03
 8.3257761E+00  4.6793354E+03
 8.3328772E+00  4.7096807E+03
 8.3399773E+00  4.7548628E+03
 8.3470783E+00  4.8088682E+03
 8.3541794E+00  4.8578130E+03
 8.3612804E+00  4.8930308E+03
 8.3683815E+00  4.9093545E+03
 8.3754816E+00  4.9037861E+03
 8.3825827E+00  4.8797598E+03
 8.3896837E+00  4.8456040E+03
 8.3967848E+00  4.8123774E+03
 8.4038858E+00  4.7870005E+03
 8.4109859E+00  4.7780806E+03
 8.4180870E+00  4.7908428E+03
 8.4251881E+00  4.8276055E+03
 8.4322891E+00  4.8818413E+03
 8.4393902E+00  4.9417700E+03
 8.4464903E+00  4.9927407E+03
 8.4535913E+00  5.0201274E+03
 8.4606924E+00  5.0149702E+03
 8.4677935E+00  4.9762290E+03
 8.4748945E+00  4.9090093E+03
 8.4819956E+00  4.8297158E+03
 8.4890957E+00  4.7530830E+03
 8.4961967E+00  4.6866143E+03
 8.5032978E+00  4.6327480E+03
 8.5103989E+00  4.5935752E+03
 8.5174999E+00  4.5706792E+03
 8.5246000E+00  4.5553252E+03
 8.5317011E+00  4.5466147E+03
 8.5388021E+00  4.5442715E+03
 8.5459032E+00  4.5486602E+03
 8.5530043E+00  4.5611992E+03
 8.5601044E+00  4.5776201E+03
 8.5672054E+00  4.5986641E+03
 8.5743065E+00  4.6271714E+03
 8.5814075E+00  4.6655244E+03
 8.5885086E+00  4.7095850E+03
 8.5956087E+00  4.7565493E+03
 8.6027098E+00  4.8083921E+03
 8.6098108E+00  4.8615752E+03
 8.6169119E+00  4.9091338E+03
 8.6240129E+00  4.9550371E+03
 8.6311131E+00  5.0067827E+03
 8.6382141E+00  5.0702217E+03
 8.6453152E+00  5.1466274E+03
 8.6524162E+00  5.2344937E+03
 8.6595173E+00  5.3219473E+03
 8.6666174E+00  5.3888896E+03
 8.6737185E+00  5.4324736E+03
 8.6808195E+00  5.4540029E+03
 8.6879206E+00  5.4692871E+03
 8.6950216E+00  5.5064399E+03
 8.7021227E+00  5.6025073E+03
 8.7092228E+00  5.7851489E+03
 8.7163239E+00  6.0396279E+03
 8.7234249E+00  6.3330889E+03
 8.7305260E+00  6.6076099E+03
 8.7376270E+00  6.7929746E+03
 8.7447271E+00  6.8367007E+03
 8.7518282E+00  6.7236299E+03
 8.7589293E+00  6.4704453E+03
 8.7660303E+00  6.1345244E+03
 8.7731314E+00  5.7762163E+03
 8.7802315E+00  5.4460791E+03
 8.7873325E+00  5.1761650E+03
 8.7944336E+00  4.9712588E+03
 8.8015347E+00  4.8233320E+03
 8.8086357E+00  4.7161978E+03
 8.8157358E+00  4.6409404E+03
 8.8228369E+00  4.5910005E+03
 8.8299379E+00  4.5558765E+03
 8.8370390E+00  4.5322266E+03
 8.8441401E+00  4.5126929E+03
 8.8512402E+00  4.4988198E+03
 8.8583412E+00  4.4880688E+03
 8.8654423E+00  4.4782085E+03
 8.8725433E+00  4.4733232E+03
 8.8796444E+00  4.4705488E+03
 8.8867455E+00  4.4706396E+03
 8.8938456E+00  4.4784414E+03
 8.9009466E+00  4.4918804E+03
 8.9080477E+00  4.5093662E+03
 8.9151487E+00  4.5248774E+03
 8.9222498E+00  4.5372915E+03
 8.9293499E+00  4.5461772E+03
 8.9364510E+00  4.5513696E+03
 8.9435520E+00  4.5540049E+03
 8.9506531E+00  4.5619189E+03
 8.9577541E+00  4.5726187E+03
 8.9648542E+00  4.5834570E+03
 8.9719553E+00  4.5895054E+03
 8.9790564E+00  4.5871426E+03
 8.9861574E+00  4.5747476E+03
 8.9932585E+00  4.5495908E+03
 9.0003586E+00  4.5164580E+03
 9.0074596E+00  4.4774199E+03
 9.0145607E+00  4.4397407E+03
 9.0216618E+00  4.4073394E+03
 9.0287628E+00  4.3806060E+03
 9.0358629E+00  4.3571553E+03
 9.0429640E+00  4.3387139E+03
 9.0500650E+00  4.3270293E+03
 9.0571661E+00  4.3189858E+03
 9.0642672E+00  4.3122285E+03
 9.0713682E+00  4.3076216E+03
 9.0784683E+00  4.3030313E+03
 9.0855694E+00  4.2991694E+03
 9.0926704E+00  4.2957051E+03
 9.0997715E+00  4.2923486E+03
 9.1068726E+00  4.2866421E+03
 9.1139727E+00  4.2811040E+03
 9.1210737E+00  4.2786875E+03
 9.1281748E+00  4.2725996E+03
 9.1352758E+00  4.2649741E+03
 9.1423769E+00  4.2613198E+03
 9.1494770E+00  4.2594463E+03
 9.1565781E+00  4.2578896E+03
 9.1636791E+00  4.2562075E+03
 9.1707802E+00  4.2559727E+03
 9.1778812E+00  4.2559546E+03
 9.1849813E+00  4.2567173E+03
 9.1920824E+00  4.2559058E+03
 9.1991835E+00  4.2539648E+03
 9.2062845E+00  4.2568311E+03
 9.2133856E+00  4.2577461E+03
 9.2204857E+00  4.2584663E+03
 9.2275867E+00  4.2628491E+03
 9.2346878E+00  4.2660435E+03
 9.2417889E+00  4.2715142E+03
 9.2488899E+00  4.2769072E+03
 9.2559900E+00  4.2837295E+03
 9.2630911E+00  4.2875190E+03
 9.2701921E+00  4.2920259E+03
 9.2772932E+00  4.2970947E+03
 9.2843943E+00  4.3049868E+03
 9.2914953E+00  4.3096919E+03
 9.2985954E+00  4.3113403E+03
 9.3056965E+00  4.3132017E+03
 9.3127975E+00  4.3176763E+03
 9.3198986E+00  4.3214453E+03
 9.3269997E+00  4.3272397E+03
 9.3340998E+00  4.3344438E+03
 9.3412008E+00  4.3430889E+03
 9.3483019E+00  4.3506992E+03
 9.3554029E+00  4.3609087E+03
 9.3625040E+00  4.3740127E+03
 9.3696041E+00  4.3877759E+03
 9.3767052E+00  4.4054224E+03
 9.3838062E+00  4.4228267E+03
 9.3909073E+00  4.4371465E+03
 9.3980083E+00  4.4509150E+03
 9.4051085E+00  4.4672993E+03
 9.4122095E+00  4.4876963E+03
 9.4193106E+00  4.5124175E+03
 9.4264116E+00  4.5459790E+03
 9.4335127E+00  4.5867617E+03
 9.4406128E+00  4.6311221E+03
 9.4477139E+00  4.6830547E+03
 9.4548149E+00  4.7379536E+03
 9.4619160E+00  4.7939468E+03
 9.4690170E+00  4.8475776E+03
 9.4761181E+00  4.9012183E+03
 9.4832182E+00  4.9569722E+03
 9.4903193E+00  5.0135645E+03
 9.4974203E+00  5.0634849E+03
 9.5045214E+00  5.0998066E+03
 9.5116224E+00  5.1204780E+03
 9.5187225E+00  5.1218779E+03
 9.5258236E+00  5.1113438E+03
 9.5329247E+00  5.0907134E+03
 9.5400257E+00  5.0700405E+03
 9.5471268E+00  5.0625063E+03
 9.5542269E+00  5.0729272E+03
 9.5613279E+00  5.1020405E+03
 9.5684290E+00  5.1553091E+03
 9.5755301E+00  5.2337515E+03
 9.5826311E+00  5.3362070E+03
 9.5897312E+00  5.4571187E+03
 9.5968323E+00  5.5847520E+03
 9.6039333E+00  5.7064956E+03
 9.6110344E+00  5.8123501E+03
 9.6181355E+00  5.9042188E+03
 9.6252356E+00  5.9976812E+03
 9.6323366E+00  6.1141226E+03
 9.6394377E+00  6.2741035E+03
 9.6465387E+00  6.4600483E+03
 9.6536398E+00  6.6376895E+03
 9.6607399E+00  6.7749360E+03
 9.6678410E+00  6.8535620E+03
 9.6749420E+00  6.8709775E+03
 9.6820431E+00  6.8382139E+03
 9.6891441E+00  6.7970181E+03
 9.6962452E+00  6.7782803E+03
 9.7033453E+00  6.7811240E+03
 9.7104464E+00  6.7881514E+03
 9.7175474E+00  6.7853770E+03
 9.7246485E+00  6.7668770E+03
 9.7317495E+00  6.7265015E+03
 9.7388496E+00  6.6707646E+03
 9.7459507E+00  6.6042480E+03
 9.7530518E+00  6.5394175E+03
 9.7601528E+00  6.4851602E+03
 9.7672539E+00  6.4482041E+03
 9.7743540E+00  6.4229287E+03
 9.7814550E+00  6.4116387E+03
 9.7885561E+00  6.4095713E+03
 9.7956572E+00  6.4138569E+03
 9.8027582E+00  6.4181919E+03
 9.8098583E+00  6.4244155E+03
 9.8169594E+00  6.4229873E+03
 9.8240604E+00  6.4134736E+03
 9.8311615E+00  6.3979756E+03
 9.8382626E+00  6.3805117E+03
 9.8453627E+00  6.3664063E+03
 9.8524637E+00  6.3574453E+03
 9.8595648E+00  6.3578276E+03
 9.8666658E+00  6.3659917E+03
 9.8737669E+00  6.3759858E+03
 9.8808680E+00  6.3819458E+03
 9.8879681E+00  6.3778262E+03
 9.8950691E+00  6.3650269E+03
 9.9021702E+00  6.3351255E+03
 9.9092712E+00  6.2931187E+03
 9.9163723E+00  6.2505137E+03
 9.9234724E+00  6.2056802E+03
 9.9305735E+00  6.1613145E+03
 9.9376745E+00  6.1259331E+03
 9.9447756E+00  6.0981694E+03
 9.9518766E+00  6.0778750E+03
 9.9589767E+00  6.0644561E+03
 9.9660778E+00  6.0552832E+03
 9.9731789E+00  6.0398418E+03
 9.9802799E+00  6.0131162E+03
 9.9873810E+00  5.9721206E+03
 9.9944811E+00  5.9182329E+03
 1.0001582E+01  5.8543750E+03
 1.0008683E+01  5.7850952E+03
 1.0015784E+01  5.7210669E+03
 1.0022885E+01  5.6611191E+03
 1.0029985E+01  5.6080659E+03
 1.0037086E+01  5.5626011E+03
 1.0044188E+01  5.5225425E+03
 1.0051289E+01  5.4956582E+03
 1.0058390E+01  5.4721709E+03
 1.0065490E+01  5.4491108E+03
 1.0072591E+01  5.4271436E+03
 1.0079692E+01  5.4093359E+03
 1.0086793E+01  5.4111655E+03
 1.0093894E+01  5.4064927E+03
 1.0100995E+01  5.3993901E+03
 1.0108095E+01  5.4031797E+03
 1.0115196E+01  5.4178623E+03
 1.0122297E+01  5.4417314E+03
 1.0129398E+01  5.4720547E+03
 1.0136499E+01  5.5110449E+03
 1.0143600E+01  5.5478530E+03
 1.0150701E+01  5.5687319E+03
 1.0157802E+01  5.5605059E+03
 1.0164903E+01  5.5415220E+03
 1.0172004E+01  5.5156851E+03
 1.0179104E+01  5.4657056E+03
 1.0186205E+01  5.4090161E+03
 1.0193306E+01  5.3540703E+03
 1.0200407E+01  5.3061094E+03
 1.0207508E+01  5.2710073E+03
 1.0214608E+01  5.2467773E+03
 1.0221709E+01  5.2322295E+03
 1.0228810E+01  5.2269531E+03
 1.0235911E+01  5.2291313E+03
 1.0243012E+01  5.2364326E+03
 1.0250113E+01  5.2534653E+03
 1.0257214E+01  5.2826328E+03
 1.0264315E+01  5.3260073E+03
 1.0271416E+01  5.3770747E+03
 1.0278517E+01  5.4342813E+03
 1.0285618E+01  5.4878853E+03
 1.0292718E+01  5.5184756E+03
 1.0299819E+01  5.5237476E+03
 1.0306920E+01  5.4982959E+03
 1.0314021E+01  5.4482612E+03
 1.0321122E+01  5.3785762E+03
 1.0328222E+01  5.3009360E+03
 1.0335323E+01  5.2232207E+03
 1.0342424E+01  5.1541846E+03
 1.0349525E+01  5.0989653E+03
 1.0356627E+01  5.0513828E+03
 1.0363727E+01  5.0115029E+03
 1.0370828E+01  4.9828423E+03
 1.0377929E+01  4.9636187E+03
 1.0385030E+01  4.9527085E+03
 1.0392131E+01  4.9486357E+03
 1.0399231E+01  4.9515137E+03
 1.0406332E+01  4.9610518E+03
 1.0413433E+01  4.9730820E+03
 1.0420534E+01  4.9803433E+03
 1.0427635E+01  4.9821470E+03
 1.0434735E+01  4.9765449E+03
 1.0441836E+01  4.9650571E+03
 1.0448937E+01  4.9441772E+03
 1.0456038E+01  4.9278218E+03
 1.0463140E+01  4.9156558E+03
 1.0470240E+01  4.9044819E+03
 1.0477341E+01  4.9037778E+03
 1.0484442E+01  4.9101895E+03
 1.0491543E+01  4.9227578E+03
 1.0498644E+01  4.9388735E+03
 1.0505745E+01  4.9609761E+03
 1.0512845E+01  4.9888848E+03
 1.0519946E+01  5.0175400E+03
 1.0527047E+01  5.0498960E+03
 1.0534148E+01  5.0818018E+03
 1.0541249E+01  5.1108320E+03
 1.0548349E+01  5.1376118E+03
 1.0555450E+01  5.1579873E+03
 1.0562551E+01  5.1612256E+03
 1.0569653E+01  5.1435488E+03
 1.0576754E+01  5.1019980E+03
 1.0583854E+01  5.0386240E+03
 1.0590955E+01  4.9652671E+03
 1.0598056E+01  4.8846045E+03
 1.0605157E+01  4.8111582E+03
 1.0612258E+01  4.7457915E+03
 1.0619358E+01  4.6912163E+03
 1.0626459E+01  4.6458179E+03
 1.0633560E+01  4.6119497E+03
 1.0640661E+01  4.5884839E+03
 1.0647762E+01  4.5718789E+03
 1.0654862E+01  4.5580566E+03
 1.0661963E+01  4.5470278E+03
 1.0669065E+01  4.5394033E+03
 1.0676166E+01  4.5349253E+03
 1.0683267E+01  4.5335674E+03
 1.0690368E+01  4.5310435E+03
 1.0697468E+01  4.5271963E+03
 1.0704569E+01  4.5240830E+03
 1.0711670E+01  4.5244639E+03
 1.0718771E+01  4.5194150E+03
 1.0725872E+01  4.5089048E+03
 1.0732972E+01  4.5000493E+03
 1.0740073E+01  4.4881465E+03
 1.0747174E+01  4.4741597E+03
 1.0754275E+01  4.4618794E+03
 1.0761376E+01  4.4481406E+03
 1.0768476E+01  4.4331162E+03
 1.0775578E+01  4.4200200E+03
 1.0782679E+01  4.4061958E+03
 1.0789780E+01  4.3947617E+03
 1.0796881E+01  4.3889570E+03
 1.0803981E+01  4.3845767E+03
 1.0811082E+01  4.3754204E+03
 1.0818183E+01  4.3707163E+03
 1.0825284E+01  4.3643672E+03
 1.0832385E+01  4.3592778E+03
 1.0839485E+01  4.3557344E+03
 1.0846586E+01  4.3522988E+03
 1.0853687E+01  4.3489399E+03
 1.0860788E+01  4.3440786E+03
 1.0867889E+01  4.3387139E+03
 1.0874990E+01  4.3380400E+03
 1.0882091E+01  4.3388184E+03
 1.0889192E+01  4.3379937E+03
 1.0896293E+01  4.3362397E+03
 1.0903394E+01  4.3360454E+03
 1.0910495E+01  4.3370479E+03
 1.0917595E+01  4.3405313E+03
 1.0924696E+01  4.3449136E+03
 1.0931797E+01  4.3472178E+03
 1.0938898E+01  4.3474814E+03
 1.0945999E+01  4.3456772E+03
 1.0953099E+01  4.3446914E+03
 1.0960200E+01  4.3445767E+03
 1.0967301E+01  4.3417021E+03
 1.0974402E+01  4.3362505E+03
 1.0981503E+01  4.3324453E+03
 1.0988604E+01  4.3273838E+03
 1.0995705E+01  4.3199478E+03
 1.1002806E+01  4.3168154E+03
 1.1009907E+01  4.3103838E+03
 1.1017008E+01  4.3043716E+03
 1.1024108E+01  4.3025034E+03
 1.1031209E+01  4.3022144E+03
 1.1038310E+01  4.2968198E+03
 1.1045411E+01  4.2895889E+03
 1.1052512E+01  4.2880327E+03
 1.1059612E+01  4.2898989E+03
 1.1066713E+01  4.2898013E+03
 1.1073814E+01  4.2916118E+03
 1.1080915E+01  4.2954746E+03
 1.1088017E+01  4.3002920E+03
 1.1095118E+01  4.3054287E+03
 1.1102218E+01  4.3086470E+03
 1.1109319E+01  4.3104365E+03
 1.1116420E+01  4.3112471E+03
 1.1123521E+01  4.3181782E+03
 1.1130622E+01  4.3229956E+03
 1.1137722E+01  4.3270620E+03
 1.1144823E+01  4.3332700E+03
 1.1151924E+01  4.3397109E+03
 1.1159025E+01  4.3478931E+03
 1.1166126E+01  4.3561299E+03
 1.1173226E+01  4.3622246E+03
 1.1180327E+01  4.3635117E+03
 1.1187428E+01  4.3672549E+03
 1.1194530E+01  4.3700127E+03
 1.1201631E+01  4.3721250E+03
 1.1208731E+01  4.3768999E+03
 1.1215832E+01  4.3809302E+03
 1.1222933E+01  4.3839204E+03
 1.1230034E+01  4.3891899E+03
 1.1237135E+01  4.3913447E+03
 1.1244235E+01  4.3969146E+03
 1.1251336E+01  4.4054565E+03
 1.1258437E+01  4.4078081E+03
 1.1265538E+01  4.4174536E+03
 1.1272639E+01  4.4314604E+03
 1.1279739E+01  4.4478491E+03
 1.1286840E+01  4.4718521E+03
 1.1293941E+01  4.4948569E+03
 1.1301043E+01  4.5213569E+03
 1.1308144E+01  4.5460532E+03
 1.1315245E+01  4.5625112E+03
 1.1322345E+01  4.5688188E+03
 1.1329446E+01  4.5607275E+03
 1.1336547E+01  4.5416567E+03
 1.1343648E+01  4.5183535E+03
 1.1350749E+01  4.4871826E+03
 1.1357849E+01  4.4584316E+03
 1.1364950E+01  4.4348672E+03
 1.1372051E+01  4.4140874E+03
 1.1379152E+01  4.4016914E+03
 1.1386253E+01  4.3923633E+03
 1.1393353E+01  4.3852676E+03
 1.1400455E+01  4.3759038E+03
 1.1407556E+01  4.3735244E+03
 1.1414657E+01  4.3736787E+03
 1.1421758E+01  4.3716172E+03
 1.1428858E+01  4.3748901E+03
 1.1435959E+01  4.3846924E+03
 1.1443060E+01  4.3981108E+03
 1.1450161E+01  4.4146045E+03
 1.1457262E+01  4.4301006E+03
 1.1464362E+01  4.4446387E+03
 1.1471463E+01  4.4564297E+03
 1.1478564E+01  4.4637290E+03
 1.1485665E+01  4.4625288E+03
 1.1492766E+01  4.4454287E+03
 1.1499867E+01  4.4205874E+03
 1.1506968E+01  4.3876978E+03
 1.1514069E+01  4.3578623E+03
 1.1521170E+01  4.3312729E+03
 1.1528271E+01  4.3060942E+03
 1.1535372E+01  4.2851948E+03
 1.1542472E+01  4.2732065E+03
 1.1549573E+01  4.2658462E+03
 1.1556674E+01  4.2570435E+03
 1.1563775E+01  4.2530962E+03
 1.1570876E+01  4.2476206E+03
 1.1577976E+01  4.2435264E+03
 1.1585077E+01  4.2392065E+03
 1.1592178E+01  4.2341064E+03
 1.1599279E+01  4.2327739E+03
 1.1606380E+01  4.2253496E+03
 1.1613481E+01  4.2198540E+03
 1.1620582E+01  4.2198452E+03
 1.1627683E+01  4.2153247E+03
 1.1634784E+01  4.2091812E+03
 1.1641885E+01  4.2031616E+03
 1.1648985E+01  4.1975996E+03
 1.1656086E+01  4.1962549E+03
 1.1663187E+01  4.1928535E+03
 1.1670288E+01  4.1917905E+03
 1.1677389E+01  4.1959160E+03
 1.1684489E+01  4.2012119E+03
 1.1691590E+01  4.2090508E+03
 1.1698691E+01  4.2179307E+03
 1.1705792E+01  4.2305630E+03
 1.1712893E+01  4.2422246E+03
 1.1719995E+01  4.2516899E+03
 1.1727095E+01  4.2598486E+03
 1.1734196E+01  4.2669331E+03
 1.1741297E+01  4.2709688E+03
 1.1748398E+01  4.2798540E+03
 1.1755499E+01  4.2959028E+03
 1.1762599E+01  4.3134736E+03
 1.1769700E+01  4.3408096E+03
 1.1776801E+01  4.3755576E+03
 1.1783902E+01  4.4103491E+03
 1.1791003E+01  4.4460127E+03
 1.1798103E+01  4.4765986E+03
 1.1805204E+01  4.4940273E+03
 1.1812305E+01  4.5033232E+03
 1.1819407E+01  4.5057529E+03
 1.1826508E+01  4.5029829E+03
 1.1833608E+01  4.5007021E+03
 1.1840709E+01  4.4988594E+03
 1.1847810E+01  4.5065942E+03
 1.1854911E+01  4.5312598E+03
 1.1862012E+01  4.5641396E+03
 1.1869112E+01  4.5945732E+03
 1.1876213E+01  4.6203638E+03
 1.1883314E+01  4.6345186E+03
 1.1890415E+01  4.6214741E+03
 1.1897516E+01  4.5802134E+03
 1.1904617E+01  4.5180840E+03
 1.1911717E+01  4.4513452E+03
 1.1918818E+01  4.3855815E+03
 1.1925920E+01  4.3290078E+03
 1.1933021E+01  4.2764609E+03
 1.1940122E+01  4.2333003E+03
 1.1947222E+01  4.2032349E+03
 1.1954323E+01  4.1813198E+03
 1.1961424E+01  4.1663477E+03
 1.1968525E+01  4.1580068E+03
 1.1975626E+01  4.1503564E+03
 1.1982726E+01  4.1443599E+03
 1.1989827E+01  4.1389463E+03
 1.1996928E+01  4.1368711E+03
 1.2004029E+01  4.1385737E+03
 1.2011130E+01  4.1375986E+03
 1.2018230E+01  4.1389399E+03
 1.2025331E+01  4.1459126E+03
 1.2032433E+01  4.1468345E+03
 1.2039534E+01  4.1466489E+03
 1.2046635E+01  4.1499761E+03
 1.2053735E+01  4.1520620E+03
 1.2060836E+01  4.1556709E+03
 1.2067937E+01  4.1594761E+03
 1.2075038E+01  4.1632710E+03
 1.2082139E+01  4.1642871E+03
 1.2089239E+01  4.1682686E+03
 1.2096340E+01  4.1725166E+03
 1.2103441E+01  4.1727583E+03
 1.2110542E+01  4.1794092E+03
 1.2117643E+01  4.1818364E+03
 1.2124744E+01  4.1841406E+03
 1.2131845E+01  4.1864219E+03
 1.2138946E+01  4.1870342E+03
 1.2146047E+01  4.1879067E+03
 1.2153148E+01  4.1833799E+03
 1.2160249E+01  4.1721582E+03
 1.2167349E+01  4.1550288E+03
 1.2174450E+01  4.1333105E+03
 1.2181551E+01  4.1188540E+03
 1.2188652E+01  4.1018936E+03
 1.2195753E+01  4.0847568E+03
 1.2202853E+01  4.0653232E+03
 1.2209954E+01  4.0470332E+03
 1.2217055E+01  4.0307739E+03
 1.2224156E+01  4.0102375E+03
 1.2231257E+01  3.9824631E+03
 1.2238358E+01  3.9530803E+03
 1.2245459E+01  3.9198438E+03
 1.2252560E+01  3.8982952E+03
 1.2259661E+01  3.8780332E+03
 1.2266762E+01  3.8593833E+03
 1.2273862E+01  3.8469143E+03
 1.2280963E+01  3.8354988E+03
 1.2288064E+01  3.8251624E+03
 1.2295165E+01  3.8122522E+03
 1.2302266E+01  3.8040586E+03
 1.2309367E+01  3.8024529E+03
 1.2316467E+01  3.7942639E+03
 1.2323568E+01  3.7881790E+03
 1.2330669E+01  3.7891660E+03
 1.2337770E+01  3.7897456E+03
 1.2344872E+01  3.7879978E+03
 1.2351972E+01  3.7867585E+03
 1.2359073E+01  3.7884050E+03
 1.2366174E+01  3.7912988E+03
 1.2373275E+01  3.7931523E+03
 1.2380376E+01  3.7966985E+03
 1.2387476E+01  3.8032988E+03
 1.2394577E+01  3.8105354E+03
 1.2401678E+01  3.8227273E+03
 1.2408779E+01  3.8358628E+03
 1.2415880E+01  3.8514800E+03
 1.2422980E+01  3.8712932E+03
 1.2430081E+01  3.8919167E+03
 1.2437182E+01  3.9079824E+03
 1.2444283E+01  3.9236438E+03
 1.2451385E+01  3.9354346E+03
 1.2458485E+01  3.9372217E+03
 1.2465586E+01  3.9272615E+03
 1.2472687E+01  3.9134204E+03
 1.2479788E+01  3.8993579E+03
 1.2486889E+01  3.8811753E+03
 1.2493989E+01  3.8608130E+03
 1.2501090E+01  3.8442942E+03
 1.2508191E+01  3.8321477E+03
 1.2515292E+01  3.8228098E+03
 1.2522393E+01  3.8209614E+03
 1.2529494E+01  3.8177974E+03
 1.2536594E+01  3.8106326E+03
 1.2543695E+01  3.8012080E+03
 1.2550797E+01  3.7883005E+03
 1.2557898E+01  3.7768276E+03
 1.2564999E+01  3.7642668E+03
 1.2572099E+01  3.7516130E+03
 1.2579200E+01  3.7336565E+03
 1.2586301E+01  3.7149395E+03
 1.2593402E+01  3.7023369E+03
 1.2600503E+01  3.6904055E+03
 1.2607603E+01  3.6775295E+03
 1.2614704E+01  3.6660513E+03
 1.2621805E+01  3.6573081E+03
 1.2628906E+01  3.6531772E+03
 1.2636007E+01  3.6489504E+03
 1.2643107E+01  3.6438362E+03
 1.2650208E+01  3.6421729E+03
 1.2657310E+01  3.6414282E+03
 1.2664411E+01  3.6392722E+03
 1.2671512E+01  3.6424866E+03
 1.2678612E+01  3.6452419E+03
 1.2685713E+01  3.6410271E+03
 1.2692814E+01  3.6433911E+03
 1.2699915E+01  3.6405151E+03
 1.2707016E+01  3.6360750E+03
 1.2714117E+01  3.6348362E+03
 1.2721217E+01  3.6262080E+03
 1.2728318E+01  3.6187214E+03
 1.2735419E+01  3.6104771E+03
 1.2742520E+01  3.6086804E+03
 1.2749621E+01  3.6098489E+03
 1.2756721E+01  3.6094182E+03
 1.2763823E+01  3.6064480E+03
 1.2770924E+01  3.6028464E+03
 1.2778025E+01  3.5943608E+03
 1.2785126E+01  3.5923765E+03
 1.2792226E+01  3.5907761E+03
 1.2799327E+01  3.5917573E+03
 1.2806428E+01  3.5996831E+03
 1.2813529E+01  3.6022795E+03
 1.2820630E+01  3.6066541E+03
 1.2827730E+01  3.6162927E+03
 1.2834831E+01  3.6244321E+03
 1.2841932E+01  3.6349829E+03
 1.2849033E+01  3.6699407E+03
 1.2856134E+01  3.7410820E+03
 1.2863235E+01  3.7276824E+03
 1.2870336E+01  3.7505176E+03
 1.2877437E+01  3.7897231E+03
 1.2884538E+01  3.8307073E+03
 1.2891639E+01  3.8589114E+03
 1.2898739E+01  3.8818782E+03
 1.2905840E+01  3.8857087E+03
 1.2912941E+01  3.8678982E+03
 1.2920042E+01  3.8441404E+03
 1.2927143E+01  3.8127039E+03
 1.2934244E+01  3.7729590E+03
 1.2941344E+01  3.7356335E+03
 1.2948445E+01  3.7045635E+03
 1.2955546E+01  3.6829902E+03
 1.2962647E+01  3.6573870E+03
 1.2969748E+01  3.6386467E+03
 1.2976849E+01  3.6243149E+03
 1.2983950E+01  3.6132483E+03
 1.2991051E+01  3.6072671E+03
 1.2998152E+01  3.6034541E+03
 1.3005253E+01  3.5955786E+03
 1.3012353E+01  3.5947502E+03
 1.3019454E+01  3.5960581E+03
 1.3026555E+01  3.5935208E+03
 1.3033656E+01  3.5964292E+03
 1.3040757E+01  3.6000859E+03
 1.3047857E+01  3.6067109E+03
 1.3054958E+01  3.6074866E+03
 1.3062059E+01  3.6110122E+03
 1.3069160E+01  3.6152383E+03
 1.3076262E+01  3.6144373E+03
 1.3083362E+01  3.6112390E+03
 1.3090463E+01  3.6101145E+03
 1.3097564E+01  3.6120637E+03
 1.3104665E+01  3.6132000E+03
 1.3111766E+01  3.6197346E+03
 1.3118867E+01  3.6267854E+03
 1.3125967E+01  3.6364795E+03
 1.3133068E+01  3.6492485E+03
 1.3140169E+01  3.6583462E+03
 1.3147270E+01  3.6721128E+03
 1.3154371E+01  3.6781680E+03
 1.3161471E+01  3.6799116E+03
 1.3168572E+01  3.6788728E+03
 1.3175673E+01  3.6826487E+03
 1.3182775E+01  3.6966914E+03
 1.3189876E+01  3.7172246E+03
 1.3196976E+01  3.7423394E+03
 1.3204077E+01  3.7659131E+03
 1.3211178E+01  3.7773167E+03
 1.3218279E+01  3.7787852E+03
 1.3225380E+01  3.7800967E+03
 1.3232480E+01  3.7678196E+03
 1.3239581E+01  3.7422749E+03
 1.3246682E+01  3.7181709E+03
 1.3253783E+01  3.6967878E+03
 1.3260884E+01  3.6874458E+03
 1.3267984E+01  3.6782903E+03
 1.3275085E+01  3.6776931E+03
 1.3282187E+01  3.6832825E+03
 1.3289288E+01  3.6817883E+03
 1.3296389E+01  3.6971067E+03
 1.3303489E+01  3.7062815E+03
 1.3310590E+01  3.7064446E+03
 1.3317691E+01  3.6949263E+03
 1.3324792E+01  3.6767131E+03
 1.3331893E+01  3.6671760E+03
 1.3338994E+01  3.6480610E+03
 1.3346094E+01  3.6334368E+03
 1.3353195E+01  3.6295024E+03
 1.3360296E+01  3.6286436E+03
 1.3367397E+01  3.6237725E+03
 1.3374498E+01  3.6118081E+03
 1.3381598E+01  3.6057256E+03
 1.3388700E+01  3.6016138E+03
 1.3395801E+01  3.5957078E+03
 1.3402902E+01  3.5992725E+03
 1.3410003E+01  3.6020574E+03
 1.3417103E+01  3.6086235E+03
 1.3424204E+01  3.6105889E+03
 1.3431305E+01  3.6160415E+03
 1.3438406E+01  3.6328306E+03
 1.3445507E+01  3.6533030E+03
 1.3452607E+01  3.6730898E+03
 1.3459708E+01  3.6953359E+03
 1.3466809E+01  3.7172988E+03
 1.3473910E+01  3.7260999E+03
 1.3481011E+01  3.7336426E+03
 1.3488111E+01  3.7398440E+03
 1.3495213E+01  3.7441624E+03
 1.3502314E+01  3.7330334E+03
 1.3509415E+01  3.7160237E+03
 1.3516516E+01  3.6984546E+03
 1.3523617E+01  3.6829766E+03
 1.3530717E+01  3.6675486E+03
 1.3537818E+01  3.6371750E+03
 1.3544919E+01  3.6100825E+03
 1.3552020E+01  3.5756938E+03
 1.3559121E+01  3.5431104E+03
 1.3566221E+01  3.5116335E+03
 1.3573322E+01  3.4872402E+03
 1.3580423E+01  3.4631992E+03
 1.3587524E+01  3.4453447E+03
 1.3594625E+01  3.4286477E+03
 1.3601726E+01  3.4133184E+03
 1.3608827E+01  3.4041670E+03
 1.3615928E+01  3.4019131E+03
 1.3623029E+01  3.4031003E+03
 1.3630130E+01  3.3991821E+03
 1.3637230E+01  3.3924331E+03
 1.3644331E+01  3.4013333E+03
 1.3651432E+01  3.4039980E+03
 1.3658533E+01  3.4033438E+03
 1.3665634E+01  3.3937366E+03
 1.3672734E+01  3.3977549E+03
 1.3679835E+01  3.4055408E+03
 1.3686936E+01  3.3718210E+03
 1.3694037E+01  3.3547354E+03
 1.3701138E+01  3.3538499E+03
 1.3708240E+01  3.3601392E+03
 1.3715340E+01  3.3619866E+03
 1.3722441E+01  3.3613345E+03
 1.3729542E+01  3.3796733E+03
 1.3736643E+01  3.4045288E+03
 1.3743744E+01  3.4175833E+03
 1.3750844E+01  3.4233245E+03
 1.3757945E+01  3.4317446E+03
 1.3765046E+01  3.4429802E+03
 1.3772147E+01  3.4389358E+03
 1.3779248E+01  3.4289624E+03
 1.3786348E+01  3.4157488E+03
 1.3793449E+01  3.4075898E+03
 1.3800550E+01  3.3885186E+03
 1.3807652E+01  3.3610718E+03
 1.3814753E+01  3.3452473E+03
 1.3821853E+01  3.3301567E+03
 1.3828954E+01  3.3095486E+03
 1.3836055E+01  3.2953738E+03
 1.3843156E+01  3.2890242E+03
 1.3850257E+01  3.2691450E+03
 1.3857357E+01  3.2580920E+03
 1.3864458E+01  3.2263435E+03
 1.3871559E+01  3.2099419E+03
 1.3878660E+01  3.1912703E+03
 1.3885761E+01  3.1665073E+03
 1.3892861E+01  3.1551313E+03
 1.3899962E+01  3.1445986E+03
 1.3907063E+01  3.1283677E+03
 1.3914165E+01  3.1051272E+03
 1.3921266E+01  3.0883022E+03
 1.3928367E+01  3.0684426E+03
 1.3935467E+01  3.0507000E+03
 1.3942568E+01  3.0302253E+03
 1.3949669E+01  3.0222629E+03
 1.3956770E+01  2.9816296E+03
 1.3963871E+01  2.9320542E+03
 1.3970971E+01  2.8879133E+03
 1.3978072E+01  2.8309294E+03
 1.3985173E+01  2.7635876E+03
 1.3992274E+01  2.7299634E+03
 1.3999375E+01  2.6692354E+03
 1.4006475E+01  2.5997620E+03
 1.4013577E+01  2.5466794E+03
 1.4020678E+01  2.4824028E+03
 1.4027779E+01  2.4060723E+03
 1.4034880E+01  2.3351008E+03
 1.4041980E+01  2.2699573E+03
 1.4049081E+01  2.1606904E+03
 1.4056182E+01  2.1838169E+03
 1.4063283E+01  2.2519050E+03
 1.4070384E+01  2.1414063E+03
 1.4077484E+01  2.0485215E+03
 1.4084585E+01  1.9856514E+03
 1.4091686E+01  1.9522908E+03
 1.4098787E+01  1.9021661E+03
 1.4105888E+01  1.7801361E+03
 1.4112989E+01  1.6132583E+03
 1.4120090E+01  1.4249163E+03
 1.4127191E+01  1.2583246E+03
 1.4134292E+01  1.0269568E+03
 1.4141393E+01  7.9029218E+02
 1.4148494E+01  5.4513068E+02
 1.4155594E+01  3.7419238E+02
 1.4162695E+01  3.2461176E+02
 1.4169796E+01  0.0000000E+00
 1.4176897E+01  0.0000000E+00
 1.4183998E+01  0.0000000E+00
 1.4191098E+01  0.0000000E+00
 1.4198199E+01  0.0000000E+00
