# xPDFsuite Configuration #
[PDF]
wavelength = 0.1
dataformat = QA
inputfile = B3_Bronze-3nm_ss_030.chi
backgroundfile = B3_Li-bkg_DD155_two_ss_att.chi
mode = xray
bgscale = 0.985
composition = Ti O2
outputtype = gr
qmaxinst = 23.5
qmin = 0.1
qmax = 23.0
rmax = 40.0
rmin = 0.0
rstep = 0.01
rpoly = 0.9

[Misc]
inputdir = E:/Beamtime/PETRA-III_September-2019/BeamData/processed/Run1/B3/integration_20210218/chi/chi_w_sigmas/chi_scaled
savedir = E:/Beamtime/PETRA-III_September-2019/BeamData/processed/Run1/B3/integration_20210218
backgroundfilefull = E:/Beamtime/PETRA-III_September-2019/BeamData/processed/Run1/B3/integration_20210218/chi/chi_w_sigmas/chi_scaled/B3_Li-bkg_DD155_two_ss_att.chi

#### start data
#S 1
#L r($\AA$)  G($\AA^{-2}$)
0 0
0.01 0.00287452
0.02 0.00559625
0.03 0.00801062
0.04 0.00997957
0.05 0.0114372
0.06 0.0122178
0.07 0.012373
0.08 0.0118339
0.09 0.0106489
0.1 0.00890642
0.11 0.00664194
0.12 0.00404081
0.13 0.00120842
0.14 -0.00168271
0.15 -0.00448849
0.16 -0.00702577
0.17 -0.00919479
0.18 -0.0108289
0.19 -0.0118607
0.2 -0.0122415
0.21 -0.0118799
0.22 -0.0108706
0.23 -0.00917787
0.24 -0.0069342
0.25 -0.00423737
0.26 -0.00120377
0.27 0.00198879
0.28 0.00518628
0.29 0.00821446
0.3 0.0109155
0.31 0.013097
0.32 0.0146835
0.33 0.015457
0.34 0.015407
0.35 0.0144373
0.36 0.0124708
0.37 0.00959267
0.38 0.00568088
0.39 0.000904547
0.4 -0.00472405
0.41 -0.0111263
0.42 -0.0181429
0.43 -0.0257407
0.44 -0.0337114
0.45 -0.0419499
0.46 -0.0502944
0.47 -0.0585968
0.48 -0.0666568
0.49 -0.0743336
0.5 -0.0814061
0.51 -0.0876636
0.52 -0.0929595
0.53 -0.0968911
0.54 -0.0994046
0.55 -0.1001
0.56 -0.0987536
0.57 -0.0952139
0.58 -0.0889203
0.59 -0.0799983
0.6 -0.0679416
0.61 -0.0527263
0.62 -0.0343291
0.63 -0.0123745
0.64 0.0126664
0.65 0.0410271
0.66 0.0722398
0.67 0.105964
0.68 0.14189
0.69 0.179232
0.7 0.217459
0.71 0.2557
0.72 0.293175
0.73 0.328829
0.74 0.362006
0.75 0.391364
0.76 0.416366
0.77 0.436123
0.78 0.449596
0.79 0.456881
0.8 0.456598
0.81 0.44937
0.82 0.434852
0.83 0.41305
0.84 0.385007
0.85 0.35045
0.86 0.311047
0.87 0.267445
0.88 0.220857
0.89 0.172651
0.9 0.124069
0.91 0.0764766
0.92 0.0311849
0.93 -0.0105394
0.94 -0.0480259
0.95 -0.0796661
0.96 -0.105701
0.97 -0.125273
0.98 -0.138492
0.99 -0.145921
1 -0.147423
1.01 -0.144593
1.02 -0.138055
1.03 -0.129323
1.04 -0.119771
1.05 -0.11104
1.06 -0.104496
1.07 -0.101914
1.08 -0.104514
1.09 -0.113266
1.1 -0.129783
1.11 -0.153694
1.12 -0.186156
1.13 -0.226377
1.14 -0.273824
1.15 -0.327947
1.16 -0.386734
1.17 -0.448981
1.18 -0.512306
1.19 -0.574658
1.2 -0.633325
1.21 -0.686464
1.22 -0.730684
1.23 -0.764616
1.24 -0.786016
1.25 -0.792528
1.26 -0.784444
1.27 -0.758659
1.28 -0.71702
1.29 -0.658953
1.3 -0.585054
1.31 -0.498
1.32 -0.397879
1.33 -0.288857
1.34 -0.172979
1.35 -0.053616
1.36 0.0660144
1.37 0.182027
1.38 0.291623
1.39 0.391106
1.4 0.477413
1.41 0.549067
1.42 0.601518
1.43 0.635892
1.44 0.649439
1.45 0.642429
1.46 0.616095
1.47 0.569108
1.48 0.505664
1.49 0.426086
1.5 0.333839
1.51 0.231937
1.52 0.12297
1.53 0.0109609
1.54 -0.101003
1.55 -0.209516
1.56 -0.311843
1.57 -0.404376
1.58 -0.486088
1.59 -0.553661
1.6 -0.606844
1.61 -0.644848
1.62 -0.666415
1.63 -0.673658
1.64 -0.665534
1.65 -0.644843
1.66 -0.61285
1.67 -0.571186
1.68 -0.52281
1.69 -0.469225
1.7 -0.413293
1.71 -0.35693
1.72 -0.30228
1.73 -0.250695
1.74 -0.204163
1.75 -0.163013
1.76 -0.1281
1.77 -0.0996717
1.78 -0.0769453
1.79 -0.060151
1.8 -0.0475182
1.81 -0.038229
1.82 -0.0307742
1.83 -0.0237048
1.84 -0.0153594
1.85 -0.00452481
1.86 0.0102744
1.87 0.0300901
1.88 0.055327
1.89 0.0872244
1.9 0.124944
1.91 0.168772
1.92 0.217746
1.93 0.270721
1.94 0.326612
1.95 0.383482
1.96 0.439566
1.97 0.492822
1.98 0.541469
1.99 0.582797
2 0.615915
2.01 0.638058
2.02 0.648484
2.03 0.646219
2.04 0.629408
2.05 0.599374
2.06 0.554446
2.07 0.496398
2.08 0.425878
2.09 0.343549
2.1 0.252142
2.11 0.152439
2.12 0.0474524
2.13 -0.0608481
2.14 -0.169968
2.15 -0.277656
2.16 -0.381103
2.17 -0.478552
2.18 -0.567772
2.19 -0.646549
2.2 -0.714441
2.21 -0.768292
2.22 -0.809017
2.23 -0.835136
2.24 -0.846241
2.25 -0.843617
2.26 -0.825348
2.27 -0.794343
2.28 -0.750322
2.29 -0.694594
2.3 -0.629067
2.31 -0.553916
2.32 -0.471968
2.33 -0.384137
2.34 -0.292348
2.35 -0.198292
2.36 -0.103569
2.37 -0.00982824
2.38 0.081245
2.39 0.16817
2.4 0.249799
2.41 0.324057
2.42 0.390726
2.43 0.447825
2.44 0.49495
2.45 0.53155
2.46 0.556001
2.47 0.569358
2.48 0.570014
2.49 0.558947
2.5 0.536348
2.51 0.501925
2.52 0.457647
2.53 0.403201
2.54 0.340737
2.55 0.271386
2.56 0.19655
2.57 0.118396
2.58 0.0385022
2.59 -0.0409426
2.6 -0.118043
2.61 -0.19052
2.62 -0.257088
2.63 -0.314852
2.64 -0.363284
2.65 -0.400565
2.66 -0.425326
2.67 -0.438005
2.68 -0.436197
2.69 -0.421896
2.7 -0.394516
2.71 -0.354886
2.72 -0.304939
2.73 -0.244697
2.74 -0.177348
2.75 -0.104155
2.76 -0.0275155
2.77 0.0503777
2.78 0.127134
2.79 0.200801
2.8 0.269048
2.81 0.330104
2.82 0.382882
2.83 0.424982
2.84 0.456976
2.85 0.477284
2.86 0.486441
2.87 0.485056
2.88 0.472891
2.89 0.452293
2.9 0.423685
2.91 0.389297
2.92 0.350814
2.93 0.310015
2.94 0.268927
2.95 0.22944
2.96 0.193158
2.97 0.161465
2.98 0.135987
2.99 0.116857
3 0.105515
3.01 0.101346
3.02 0.104337
3.03 0.114172
3.04 0.129341
3.05 0.149317
3.06 0.172115
3.07 0.196375
3.08 0.220292
3.09 0.242384
3.1 0.260528
3.11 0.273733
3.12 0.28044
3.13 0.279432
3.14 0.270689
3.15 0.252428
3.16 0.225932
3.17 0.190759
3.18 0.1476
3.19 0.0977986
3.2 0.0416578
3.21 -0.0186089
3.22 -0.0819272
3.23 -0.146529
3.24 -0.210918
3.25 -0.273307
3.26 -0.332596
3.27 -0.387211
3.28 -0.43625
3.29 -0.479219
3.3 -0.514872
3.31 -0.543951
3.32 -0.565795
3.33 -0.581191
3.34 -0.590802
3.35 -0.59498
3.36 -0.595262
3.37 -0.592245
3.38 -0.587283
3.39 -0.581337
3.4 -0.57541
3.41 -0.57026
3.42 -0.566676
3.43 -0.564951
3.44 -0.565284
3.45 -0.567711
3.46 -0.571716
3.47 -0.576908
3.48 -0.582369
3.49 -0.587213
3.5 -0.590213
3.51 -0.590498
3.52 -0.586339
3.53 -0.577111
3.54 -0.561551
3.55 -0.538539
3.56 -0.508117
3.57 -0.468575
3.58 -0.420961
3.59 -0.364794
3.6 -0.300488
3.61 -0.229313
3.62 -0.151267
3.63 -0.0685613
3.64 0.0178291
3.65 0.10612
3.66 0.19466
3.67 0.281453
3.68 0.365023
3.69 0.443364
3.7 0.514932
3.71 0.578758
3.72 0.632485
3.73 0.676498
3.74 0.709024
3.75 0.730139
3.76 0.740034
3.77 0.737663
3.78 0.724904
3.79 0.701162
3.8 0.667985
3.81 0.626382
3.82 0.576873
3.83 0.521497
3.84 0.460812
3.85 0.396531
3.86 0.329757
3.87 0.261621
3.88 0.193265
3.89 0.125711
3.9 0.0597698
3.91 -0.0038253
3.92 -0.0642553
3.93 -0.121368
3.94 -0.174216
3.95 -0.222933
3.96 -0.267097
3.97 -0.306334
3.98 -0.340959
3.99 -0.370101
4 -0.394322
4.01 -0.413215
4.02 -0.426584
4.03 -0.434815
4.04 -0.436958
4.05 -0.433793
4.06 -0.424851
4.07 -0.410145
4.08 -0.390144
4.09 -0.36416
4.1 -0.333242
4.11 -0.297218
4.12 -0.256617
4.13 -0.212143
4.14 -0.163956
4.15 -0.113233
4.16 -0.0604915
4.17 -0.00671586
4.18 0.0472412
4.19 0.100345
4.2 0.151822
4.21 0.200574
4.22 0.245859
4.23 0.287064
4.24 0.323054
4.25 0.353971
4.26 0.378808
4.27 0.397766
4.28 0.410823
4.29 0.41764
4.3 0.419176
4.31 0.415175
4.32 0.406663
4.33 0.394172
4.34 0.378252
4.35 0.359961
4.36 0.339796
4.37 0.318714
4.38 0.297341
4.39 0.276362
4.4 0.256222
4.41 0.237513
4.42 0.220366
4.43 0.205014
4.44 0.191541
4.45 0.1797
4.46 0.169529
4.47 0.16052
4.48 0.152412
4.49 0.14477
4.5 0.137184
4.51 0.129184
4.52 0.120458
4.53 0.110633
4.54 0.0994576
4.55 0.0868883
4.56 0.0726695
4.57 0.0570999
4.58 0.0402269
4.59 0.022393
4.6 0.00398694
4.61 -0.0145407
4.62 -0.0326755
4.63 -0.0498183
4.64 -0.0654115
4.65 -0.0790062
4.66 -0.0897996
4.67 -0.0977121
4.68 -0.102025
4.69 -0.102663
4.7 -0.0995253
4.71 -0.092206
4.72 -0.0812534
4.73 -0.0663883
4.74 -0.04819
4.75 -0.0269815
4.76 -0.00303154
4.77 0.0229078
4.78 0.0505519
4.79 0.0792029
4.8 0.108403
4.81 0.137644
4.82 0.166523
4.83 0.19458
4.84 0.2216
4.85 0.247335
4.86 0.271585
4.87 0.294432
4.88 0.315669
4.89 0.335558
4.9 0.354127
4.91 0.371505
4.92 0.387933
4.93 0.403423
4.94 0.41823
4.95 0.432385
4.96 0.44593
4.97 0.458897
4.98 0.471099
4.99 0.482499
5 0.492818
5.01 0.501785
5.02 0.509202
5.03 0.514453
5.04 0.517483
5.05 0.517705
5.06 0.514846
5.07 0.50876
5.08 0.498767
5.09 0.485197
5.1 0.467548
5.11 0.446009
5.12 0.420751
5.13 0.391595
5.14 0.359273
5.15 0.323768
5.16 0.285741
5.17 0.245657
5.18 0.203944
5.19 0.161307
5.2 0.118221
5.21 0.0752907
5.22 0.032994
5.23 -0.00810351
5.24 -0.0477563
5.25 -0.085403
5.26 -0.12098
5.27 -0.154269
5.28 -0.185068
5.29 -0.213616
5.3 -0.239646
5.31 -0.263568
5.32 -0.28544
5.33 -0.305427
5.34 -0.323899
5.35 -0.340865
5.36 -0.356724
5.37 -0.371577
5.38 -0.385569
5.39 -0.398862
5.4 -0.411395
5.41 -0.423274
5.42 -0.434391
5.43 -0.444641
5.44 -0.453965
5.45 -0.462029
5.46 -0.468834
5.47 -0.474076
5.48 -0.477605
5.49 -0.479374
5.5 -0.479016
5.51 -0.476748
5.52 -0.472351
5.53 -0.465956
5.54 -0.457728
5.55 -0.447644
5.56 -0.436151
5.57 -0.423366
5.58 -0.409689
5.59 -0.395449
5.6 -0.380999
5.61 -0.366702
5.62 -0.352944
5.63 -0.340024
5.64 -0.328206
5.65 -0.317845
5.66 -0.308949
5.67 -0.301846
5.68 -0.296437
5.69 -0.292747
5.7 -0.290802
5.71 -0.290308
5.72 -0.291289
5.73 -0.293379
5.74 -0.296401
5.75 -0.300115
5.76 -0.304225
5.77 -0.308518
5.78 -0.312743
5.79 -0.316704
5.8 -0.320203
5.81 -0.323159
5.82 -0.325366
5.83 -0.326855
5.84 -0.327536
5.85 -0.327391
5.86 -0.326488
5.87 -0.324714
5.88 -0.322209
5.89 -0.318911
5.9 -0.314818
5.91 -0.309953
5.92 -0.304137
5.93 -0.297417
5.94 -0.28959
5.95 -0.280543
5.96 -0.270192
5.97 -0.258183
5.98 -0.244575
5.99 -0.229038
6 -0.211526
6.01 -0.192013
6.02 -0.170245
6.03 -0.146522
6.04 -0.120712
6.05 -0.0931301
6.06 -0.06403
6.07 -0.0336627
6.08 -0.00256557
6.09 0.0288417
6.1 0.059968
6.11 0.0902703
6.12 0.119009
6.13 0.145789
6.14 0.169707
6.15 0.190472
6.16 0.207565
6.17 0.220371
6.18 0.229072
6.19 0.232903
6.2 0.232391
6.21 0.22748
6.22 0.218343
6.23 0.205765
6.24 0.189845
6.25 0.171697
6.26 0.151933
6.27 0.131484
6.28 0.111224
6.29 0.0922576
6.3 0.0753186
6.31 0.0614123
6.32 0.051399
6.33 0.0456112
6.34 0.0453548
6.35 0.0502388
6.36 0.0609708
6.37 0.0774862
6.38 0.0993371
6.39 0.126882
6.4 0.158867
6.41 0.195088
6.42 0.234528
6.43 0.276229
6.44 0.319304
6.45 0.362557
6.46 0.404897
6.47 0.445232
6.48 0.482661
6.49 0.515812
6.5 0.544392
6.51 0.567083
6.52 0.583681
6.53 0.593823
6.54 0.596708
6.55 0.593081
6.56 0.582173
6.57 0.564855
6.58 0.541399
6.59 0.512011
6.6 0.477892
6.61 0.439146
6.62 0.397026
6.63 0.352177
6.64 0.305387
6.65 0.257576
6.66 0.209444
6.67 0.161753
6.68 0.11514
6.69 0.0702665
6.7 0.0274125
6.71 -0.0126448
6.72 -0.0499617
6.73 -0.0841332
6.74 -0.114976
6.75 -0.142701
6.76 -0.166767
6.77 -0.18775
6.78 -0.205458
6.79 -0.220043
6.8 -0.231833
6.81 -0.240582
6.82 -0.246859
6.83 -0.250572
6.84 -0.251949
6.85 -0.251234
6.86 -0.248318
6.87 -0.24362
6.88 -0.237088
6.89 -0.228947
6.9 -0.219382
6.91 -0.208416
6.92 -0.196389
6.93 -0.183371
6.94 -0.16964
6.95 -0.155416
6.96 -0.140929
6.97 -0.126453
6.98 -0.112272
6.99 -0.0986479
7 -0.085829
7.01 -0.0741629
7.02 -0.0637422
7.03 -0.0549594
7.04 -0.047842
7.05 -0.042544
7.06 -0.03925
7.07 -0.0377752
7.08 -0.0383449
7.09 -0.0406451
7.1 -0.044602
7.11 -0.0500488
7.12 -0.0566158
7.13 -0.0641476
7.14 -0.0721985
7.15 -0.0804692
7.16 -0.088571
7.17 -0.0962005
7.18 -0.102888
7.19 -0.108443
7.2 -0.112505
7.21 -0.114805
7.22 -0.115305
7.23 -0.113552
7.24 -0.10979
7.25 -0.103811
7.26 -0.0956912
7.27 -0.0856391
7.28 -0.0735465
7.29 -0.0598735
7.3 -0.0446833
7.31 -0.0282984
7.32 -0.011017
7.33 0.00694249
7.34 0.0252152
7.35 0.0435471
7.36 0.0616462
7.37 0.079287
7.38 0.0961589
7.39 0.112161
7.4 0.127004
7.41 0.140607
7.42 0.152871
7.43 0.163576
7.44 0.172838
7.45 0.180419
7.46 0.186429
7.47 0.190841
7.48 0.193555
7.49 0.194766
7.5 0.194291
7.51 0.192328
7.52 0.188874
7.53 0.183916
7.54 0.17766
7.55 0.169994
7.56 0.161167
7.57 0.151223
7.58 0.140264
7.59 0.128512
7.6 0.116023
7.61 0.103075
7.62 0.0898316
7.63 0.0765293
7.64 0.0633799
7.65 0.0506879
7.66 0.0386309
7.67 0.0274957
7.68 0.0175267
7.69 0.00883137
7.7 0.00181532
7.71 -0.00361326
7.72 -0.00720004
7.73 -0.00892966
7.74 -0.00890049
7.75 -0.00694712
7.76 -0.003443
7.77 0.00159424
7.78 0.00784984
7.79 0.0150185
7.8 0.0228225
7.81 0.0308283
7.82 0.038654
7.83 0.0458797
7.84 0.0521458
7.85 0.0569188
7.86 0.0600361
7.87 0.0609585
7.88 0.0595691
7.89 0.0556867
7.9 0.0489824
7.91 0.0397312
7.92 0.0276358
7.93 0.0130767
7.94 -0.00379696
7.95 -0.0228017
7.96 -0.0433934
7.97 -0.0653542
7.98 -0.0880802
7.99 -0.111148
8 -0.134025
8.01 -0.156285
8.02 -0.177315
8.03 -0.196825
8.04 -0.214373
8.05 -0.22957
8.06 -0.24241
8.07 -0.252331
8.08 -0.259655
8.09 -0.26421
8.1 -0.266099
8.11 -0.265698
8.12 -0.262926
8.13 -0.258442
8.14 -0.252449
8.15 -0.245401
8.16 -0.237737
8.17 -0.229847
8.18 -0.22215
8.19 -0.215024
8.2 -0.20879
8.21 -0.203634
8.22 -0.199896
8.23 -0.197485
8.24 -0.196555
8.25 -0.196959
8.26 -0.198513
8.27 -0.201065
8.28 -0.204196
8.29 -0.207592
8.3 -0.210796
8.31 -0.2134
8.32 -0.21483
8.33 -0.214791
8.34 -0.212635
8.35 -0.208111
8.36 -0.200885
8.37 -0.190458
8.38 -0.176996
8.39 -0.15996
8.4 -0.139673
8.41 -0.116127
8.42 -0.0893578
8.43 -0.0599362
8.44 -0.0278639
8.45 0.00612816
8.46 0.041656
8.47 0.0781657
8.48 0.115043
8.49 0.151676
8.5 0.187494
8.51 0.221895
8.52 0.254259
8.53 0.284317
8.54 0.311187
8.55 0.334956
8.56 0.355104
8.57 0.371432
8.58 0.384129
8.59 0.392618
8.6 0.397578
8.61 0.398842
8.62 0.396753
8.63 0.391782
8.64 0.383963
8.65 0.374087
8.66 0.36239
8.67 0.349436
8.68 0.335696
8.69 0.3216
8.7 0.307601
8.71 0.29411
8.72 0.28146
8.73 0.269891
8.74 0.259755
8.75 0.251016
8.76 0.243922
8.77 0.238357
8.78 0.234246
8.79 0.231547
8.8 0.229908
8.81 0.229195
8.82 0.229016
8.83 0.229064
8.84 0.22895
8.85 0.228352
8.86 0.226801
8.87 0.224032
8.88 0.219701
8.89 0.213422
8.9 0.205169
8.91 0.194444
8.92 0.181417
8.93 0.16593
8.94 0.147952
8.95 0.127804
8.96 0.10534
8.97 0.0811162
8.98 0.0553162
8.99 0.0283415
9 0.000669121
9.01 -0.0272759
9.02 -0.054961
9.03 -0.0818672
9.04 -0.107443
9.05 -0.131328
9.06 -0.152723
9.07 -0.171549
9.08 -0.187176
9.09 -0.199348
9.1 -0.208016
9.11 -0.21254
9.12 -0.213398
9.13 -0.210214
9.14 -0.203279
9.15 -0.192895
9.16 -0.179007
9.17 -0.162398
9.18 -0.143196
9.19 -0.122069
9.2 -0.0995325
9.21 -0.0760934
9.22 -0.0523968
9.23 -0.0290101
9.24 -0.00648502
9.25 0.014699
9.26 0.0339186
9.27 0.0510132
9.28 0.0653357
9.29 0.0768769
9.3 0.0854211
9.31 0.0907166
9.32 0.093103
9.33 0.0922578
9.34 0.0886988
9.35 0.0825421
9.36 0.0740217
9.37 0.0636693
9.38 0.0516165
9.39 0.0384594
9.4 0.0244993
9.41 0.0101288
9.42 -0.00431089
9.43 -0.0184872
9.44 -0.0321889
9.45 -0.0451978
9.46 -0.0573762
9.47 -0.0687333
9.48 -0.0791424
9.49 -0.0888049
9.5 -0.0977696
9.51 -0.106226
9.52 -0.114383
9.53 -0.122446
9.54 -0.130646
9.55 -0.139212
9.56 -0.148334
9.57 -0.158131
9.58 -0.168805
9.59 -0.180288
9.6 -0.192653
9.61 -0.205761
9.62 -0.21945
9.63 -0.233521
9.64 -0.247653
9.65 -0.261495
9.66 -0.27466
9.67 -0.286772
9.68 -0.297259
9.69 -0.305912
9.7 -0.312067
9.71 -0.315554
9.72 -0.316062
9.73 -0.313135
9.74 -0.307003
9.75 -0.297155
9.76 -0.283998
9.77 -0.267571
9.78 -0.247996
9.79 -0.225895
9.8 -0.201363
9.81 -0.175186
9.82 -0.147815
9.83 -0.119883
9.84 -0.0920035
9.85 -0.0648925
9.86 -0.0390625
9.87 -0.0151414
9.88 0.0062866
9.89 0.0250394
9.9 0.0402614
9.91 0.0522055
9.92 0.0604485
9.93 0.0649654
9.94 0.066069
9.95 0.0634263
9.96 0.057815
9.97 0.0492825
9.98 0.0383332
9.99 0.0255036
10 0.0111049
10.01 -0.00416679
10.02 -0.0199016
10.03 -0.035569
10.04 -0.0507693
10.05 -0.0649996
10.06 -0.078064
10.07 -0.0895564
10.08 -0.0993606
10.09 -0.107397
10.1 -0.113443
10.11 -0.11775
10.12 -0.120181
10.13 -0.120999
10.14 -0.120351
10.15 -0.118331
10.16 -0.115273
10.17 -0.111242
10.18 -0.10651
10.19 -0.101209
10.2 -0.0954497
10.21 -0.0893626
10.22 -0.0829589
10.23 -0.0762859
10.24 -0.069314
10.25 -0.0619748
10.26 -0.0542364
10.27 -0.0459393
10.28 -0.0370564
10.29 -0.0274738
10.3 -0.0170996
10.31 -0.00596525
10.32 0.0060619
10.33 0.0188284
10.34 0.0323123
10.35 0.0463786
10.36 0.0608283
10.37 0.0754762
10.38 0.0900454
10.39 0.104259
10.4 0.117803
10.41 0.130454
10.42 0.141753
10.43 0.151631
10.44 0.159724
10.45 0.165898
10.46 0.170137
10.47 0.17215
10.48 0.172254
10.49 0.170349
10.5 0.166721
10.51 0.161647
10.52 0.155332
10.53 0.148274
10.54 0.140802
10.55 0.133385
10.56 0.126415
10.57 0.120393
10.58 0.115565
10.59 0.112429
10.6 0.111124
10.61 0.111831
10.62 0.114793
10.63 0.119762
10.64 0.126907
10.65 0.135818
10.66 0.146271
10.67 0.157929
10.68 0.170271
10.69 0.182859
10.7 0.195131
10.71 0.206569
10.72 0.216559
10.73 0.224786
10.74 0.230466
10.75 0.233532
10.76 0.233533
10.77 0.230199
10.78 0.22372
10.79 0.213581
10.8 0.200405
10.81 0.184155
10.82 0.165179
10.83 0.144024
10.84 0.120884
10.85 0.0965454
10.86 0.0714315
10.87 0.0461609
10.88 0.0212368
10.89 -0.00269148
10.9 -0.0252942
10.91 -0.0460156
10.92 -0.0645539
10.93 -0.0807535
10.94 -0.0941348
10.95 -0.104971
10.96 -0.112967
10.97 -0.118354
10.98 -0.121317
10.99 -0.12185
11 -0.120479
11.01 -0.117264
11.02 -0.112641
11.03 -0.106888
11.04 -0.100233
11.05 -0.0930184
11.06 -0.0854074
11.07 -0.0776197
11.08 -0.0697764
11.09 -0.0619703
11.1 -0.054234
11.11 -0.0465762
11.12 -0.0389526
11.13 -0.0313081
11.14 -0.02356
11.15 -0.0156493
11.16 -0.00747714
11.17 0.000973098
11.18 0.00973128
11.19 0.0187821
11.2 0.0280422
11.21 0.0374209
11.22 0.0467463
11.23 0.0558249
11.24 0.0643984
11.25 0.0722769
11.26 0.0790217
11.27 0.0845195
11.28 0.088398
11.29 0.0904057
11.3 0.0904807
11.31 0.0881564
11.32 0.0836767
11.33 0.076811
11.34 0.0676851
11.35 0.0565337
11.36 0.0433448
11.37 0.02867
11.38 0.0127128
11.39 -0.0040284
11.4 -0.0211139
11.41 -0.0380318
11.42 -0.0543363
11.43 -0.0694628
11.44 -0.0830076
11.45 -0.094626
11.46 -0.10376
11.47 -0.110456
11.48 -0.114224
11.49 -0.115204
11.5 -0.113406
11.51 -0.108761
11.52 -0.101777
11.53 -0.0924542
11.54 -0.0813842
11.55 -0.0689255
11.56 -0.0555222
11.57 -0.0417165
11.58 -0.0279854
11.59 -0.0148019
11.6 -0.00259724
11.61 0.00816721
11.62 0.0173397
11.63 0.0244028
11.64 0.0294556
11.65 0.0323149
11.66 0.0329598
11.67 0.0316729
11.68 0.0283394
11.69 0.0234821
11.7 0.0172661
11.71 0.0100521
11.72 0.0022291
11.73 -0.00588874
11.74 -0.0139205
11.75 -0.0215492
11.76 -0.0284818
11.77 -0.0345565
11.78 -0.0394597
11.79 -0.0432506
11.8 -0.045778
11.81 -0.0471099
11.82 -0.0473703
11.83 -0.0465795
11.84 -0.0450372
11.85 -0.0428615
11.86 -0.040309
11.87 -0.0375829
11.88 -0.0348931
11.89 -0.032401
11.9 -0.0302753
11.91 -0.0285924
11.92 -0.0273916
11.93 -0.0267071
11.94 -0.0264255
11.95 -0.0264869
11.96 -0.0267082
11.97 -0.0269221
11.98 -0.026898
11.99 -0.0264622
12 -0.0253259
12.01 -0.0233548
12.02 -0.0203667
12.03 -0.016171
12.04 -0.0108155
12.05 -0.00410349
12.06 0.00377019
12.07 0.0127616
12.08 0.0227194
12.09 0.0333541
12.1 0.0444645
12.11 0.055675
12.12 0.0666673
12.13 0.0770514
12.14 0.0865652
12.15 0.0946758
12.16 0.101282
12.17 0.106005
12.18 0.108635
12.19 0.109191
12.2 0.107278
12.21 0.103249
12.22 0.0969814
12.23 0.0886918
12.24 0.0786817
12.25 0.0670362
12.26 0.0542811
12.27 0.0406496
12.28 0.0265669
12.29 0.012381
12.3 -0.00151659
12.31 -0.0148519
12.32 -0.0272677
12.33 -0.0385676
12.34 -0.0486099
12.35 -0.0571464
12.36 -0.0643104
12.37 -0.0699466
12.38 -0.074243
12.39 -0.0773164
12.4 -0.0792642
12.41 -0.0803982
12.42 -0.080844
12.43 -0.0808949
12.44 -0.0807461
12.45 -0.0806076
12.46 -0.0806318
12.47 -0.0809811
12.48 -0.0817035
12.49 -0.0828403
12.5 -0.0843832
12.51 -0.0862278
12.52 -0.088289
12.53 -0.0903827
12.54 -0.0923345
12.55 -0.0939173
12.56 -0.0949763
12.57 -0.0951964
12.58 -0.0945074
12.59 -0.0926973
12.6 -0.0896408
12.61 -0.0853819
12.62 -0.0797159
12.63 -0.0728994
12.64 -0.0649377
12.65 -0.0560278
12.66 -0.0464238
12.67 -0.0363236
12.68 -0.0260784
12.69 -0.0159795
12.7 -0.00635783
12.71 0.00253586
12.72 0.0102927
12.73 0.0168313
12.74 0.0218274
12.75 0.0252163
12.76 0.0269884
12.77 0.0269859
12.78 0.0255094
12.79 0.0225472
12.8 0.0184296
12.81 0.013429
12.82 0.00784287
12.83 0.00208218
12.84 -0.00346846
12.85 -0.0084202
12.86 -0.0124207
12.87 -0.0150138
