# xPDFsuite Configuration #
[PDF]
wavelength = 0.1
dataformat = QA
inputfile = B3_Bronze-3nm_ss_034.chi
backgroundfile = B3_Li-bkg_DD155_two_ss_att.chi
mode = xray
bgscale = 0.985
composition = Ti O2
outputtype = gr
qmaxinst = 23.5
qmin = 0.1
qmax = 23.0
rmax = 40.0
rmin = 0.0
rstep = 0.01
rpoly = 0.9

[Misc]
inputdir = E:/Beamtime/PETRA-III_September-2019/BeamData/processed/Run1/B3/integration_20210218/chi/chi_w_sigmas/chi_scaled
savedir = E:/Beamtime/PETRA-III_September-2019/BeamData/processed/Run1/B3/integration_20210218
backgroundfilefull = E:/Beamtime/PETRA-III_September-2019/BeamData/processed/Run1/B3/integration_20210218/chi/chi_w_sigmas/chi_scaled/B3_Li-bkg_DD155_two_ss_att.chi

#### start data
#S 1
#L r($\AA$)  G($\AA^{-2}$)
0 0
0.01 0.00220058
0.02 0.00428307
0.03 0.00612804
0.04 0.00762895
0.05 0.00873513
0.06 0.00931923
0.07 0.00942159
0.08 0.00898991
0.09 0.00806272
0.1 0.00670895
0.11 0.00495792
0.12 0.00295296
0.13 0.000777018
0.14 -0.00143625
0.15 -0.00357545
0.16 -0.00549814
0.17 -0.00712865
0.18 -0.00833796
0.19 -0.00907546
0.2 -0.00930475
0.21 -0.00895623
0.22 -0.00810507
0.23 -0.0067251
0.24 -0.00492058
0.25 -0.00276872
0.26 -0.000361781
0.27 0.00216147
0.28 0.00467857
0.29 0.00705287
0.3 0.00915888
0.31 0.0108423
0.32 0.012042
0.33 0.0125788
0.34 0.0124401
0.35 0.011541
0.36 0.00980838
0.37 0.00730284
0.38 0.00390524
0.39 -0.000255903
0.4 -0.00518911
0.41 -0.010849
0.42 -0.0171101
0.43 -0.0239754
0.44 -0.0312651
0.45 -0.0389059
0.46 -0.0467621
0.47 -0.0546939
0.48 -0.0625341
0.49 -0.0701256
0.5 -0.0772584
0.51 -0.0837112
0.52 -0.0893175
0.53 -0.0936708
0.54 -0.0966821
0.55 -0.0979365
0.56 -0.0971849
0.57 -0.0942548
0.58 -0.0885668
0.59 -0.0802334
0.6 -0.0687371
0.61 -0.0540515
0.62 -0.0361557
0.63 -0.0146793
0.64 0.00989252
0.65 0.0377783
0.66 0.0684921
0.67 0.101677
0.68 0.137
0.69 0.17367
0.7 0.211135
0.71 0.248527
0.72 0.28507
0.73 0.319715
0.74 0.351832
0.75 0.380102
0.76 0.404025
0.77 0.422753
0.78 0.435297
0.79 0.441789
0.8 0.44092
0.81 0.433334
0.82 0.418734
0.83 0.397167
0.84 0.369665
0.85 0.336011
0.86 0.297822
0.87 0.255741
0.88 0.210947
0.89 0.164739
0.9 0.118319
0.91 0.0729536
0.92 0.0298826
0.93 -0.00972233
0.94 -0.0452615
0.95 -0.0752484
0.96 -0.0999561
0.97 -0.118621
0.98 -0.13139
0.99 -0.138832
1 -0.140876
1.01 -0.139028
1.02 -0.133919
1.03 -0.126977
1.04 -0.119484
1.05 -0.112993
1.06 -0.108733
1.07 -0.108352
1.08 -0.11293
1.09 -0.123321
1.1 -0.14096
1.11 -0.165431
1.12 -0.19772
1.13 -0.237016
1.14 -0.282745
1.15 -0.334285
1.16 -0.38974
1.17 -0.447865
1.18 -0.50644
1.19 -0.563512
1.2 -0.616503
1.21 -0.663764
1.22 -0.702074
1.23 -0.730263
1.24 -0.746271
1.25 -0.747962
1.26 -0.735726
1.27 -0.706725
1.28 -0.662814
1.29 -0.603551
1.3 -0.529608
1.31 -0.443567
1.32 -0.345646
1.33 -0.239782
1.34 -0.127979
1.35 -0.0134582
1.36 0.100777
1.37 0.210969
1.38 0.314583
1.39 0.408106
1.4 0.488696
1.41 0.555027
1.42 0.602799
1.43 0.633186
1.44 0.643609
1.45 0.634388
1.46 0.60674
1.47 0.559433
1.48 0.496486
1.49 0.418225
1.5 0.327953
1.51 0.228539
1.52 0.122451
1.53 0.0135084
1.54 -0.0953462
1.55 -0.200869
1.56 -0.300448
1.57 -0.390618
1.58 -0.470382
1.59 -0.536517
1.6 -0.588738
1.61 -0.626227
1.62 -0.647674
1.63 -0.655054
1.64 -0.647217
1.65 -0.62679
1.66 -0.594882
1.67 -0.552929
1.68 -0.50378
1.69 -0.44871
1.7 -0.39054
1.71 -0.33108
1.72 -0.2724
1.73 -0.215951
1.74 -0.163658
1.75 -0.116077
1.76 -0.0741775
1.77 -0.0384312
1.78 -0.00830723
1.79 0.0156541
1.8 0.0349533
1.81 0.0500667
1.82 0.0621684
1.83 0.0725319
1.84 0.082302
1.85 0.0927394
1.86 0.104983
1.87 0.120009
1.88 0.138313
1.89 0.160878
1.9 0.187291
1.91 0.217815
1.92 0.251823
1.93 0.288513
1.94 0.327052
1.95 0.366018
1.96 0.404014
1.97 0.439464
1.98 0.470971
1.99 0.496351
2 0.51492
2.01 0.524424
2.02 0.524269
2.03 0.513656
2.04 0.491053
2.05 0.45754
2.06 0.411727
2.07 0.355065
2.08 0.288084
2.09 0.211328
2.1 0.127066
2.11 0.0359692
2.12 -0.0594311
2.13 -0.157448
2.14 -0.255923
2.15 -0.352921
2.16 -0.445938
2.17 -0.533429
2.18 -0.613364
2.19 -0.683701
2.2 -0.743992
2.21 -0.791246
2.22 -0.826218
2.23 -0.847416
2.24 -0.854315
2.25 -0.848012
2.26 -0.826495
2.27 -0.792439
2.28 -0.745423
2.29 -0.686589
2.3 -0.617741
2.31 -0.538908
2.32 -0.452915
2.33 -0.36063
2.34 -0.264024
2.35 -0.164873
2.36 -0.0648764
2.37 0.0341448
2.38 0.130327
2.39 0.221986
2.4 0.307804
2.41 0.385418
2.42 0.45454
2.43 0.512923
2.44 0.560102
2.45 0.595477
2.46 0.617273
2.47 0.626735
2.48 0.622183
2.49 0.604829
2.5 0.575023
2.51 0.532647
2.52 0.479981
2.53 0.41694
2.54 0.345971
2.55 0.268458
2.56 0.186099
2.57 0.101196
2.58 0.0156327
2.59 -0.0683872
2.6 -0.14886
2.61 -0.223455
2.62 -0.291055
2.63 -0.348725
2.64 -0.396248
2.65 -0.431969
2.66 -0.454791
2.67 -0.465439
2.68 -0.461835
2.69 -0.446235
2.7 -0.418361
2.71 -0.379314
2.72 -0.331129
2.73 -0.274189
2.74 -0.211548
2.75 -0.14461
2.76 -0.0756851
2.77 -0.00676096
2.78 0.0598256
2.79 0.122543
2.8 0.179295
2.81 0.228714
2.82 0.27006
2.83 0.301408
2.84 0.323607
2.85 0.335551
2.86 0.33804
2.87 0.331881
2.88 0.317254
2.89 0.296339
2.9 0.269855
2.91 0.239821
2.92 0.207786
2.93 0.175463
2.94 0.144385
2.95 0.116276
2.96 0.0922279
2.97 0.0732434
2.98 0.0605005
2.99 0.053738
3 0.0539127
3.01 0.0601251
3.02 0.0720493
3.03 0.0890427
3.04 0.109631
3.05 0.132954
3.06 0.157282
3.07 0.181268
3.08 0.203265
3.09 0.222173
3.1 0.236032
3.11 0.24436
3.12 0.245937
3.13 0.239986
3.14 0.226829
3.15 0.2052
3.16 0.17656
3.17 0.140832
3.18 0.0989162
3.19 0.0521409
3.2 0.00112182
3.21 -0.0522753
3.22 -0.106947
3.23 -0.161406
3.24 -0.2145
3.25 -0.264693
3.26 -0.311389
3.27 -0.353402
3.28 -0.390294
3.29 -0.421939
3.3 -0.447639
3.31 -0.468295
3.32 -0.483719
3.33 -0.494811
3.34 -0.502313
3.35 -0.506831
3.36 -0.509556
3.37 -0.511193
3.38 -0.512692
3.39 -0.514722
3.4 -0.517977
3.41 -0.522681
3.42 -0.529213
3.43 -0.537348
3.44 -0.546837
3.45 -0.557166
3.46 -0.567568
3.47 -0.577048
3.48 -0.584611
3.49 -0.589102
3.5 -0.589071
3.51 -0.583885
3.52 -0.57153
3.53 -0.551878
3.54 -0.523788
3.55 -0.486465
3.56 -0.440465
3.57 -0.384386
3.58 -0.319888
3.59 -0.246949
3.6 -0.16653
3.61 -0.0802779
3.62 0.0111143
3.63 0.105292
3.64 0.200781
3.65 0.295535
3.66 0.387899
3.67 0.475372
3.68 0.556888
3.69 0.63023
3.7 0.694091
3.71 0.747817
3.72 0.789062
3.73 0.818836
3.74 0.835541
3.75 0.839739
3.76 0.832021
3.77 0.811722
3.78 0.781131
3.79 0.740042
3.8 0.690324
3.81 0.633245
3.82 0.569694
3.83 0.501727
3.84 0.430236
3.85 0.356888
3.86 0.282829
3.87 0.209303
3.88 0.137198
3.89 0.0676638
3.9 0.00122245
3.91 -0.0614892
3.92 -0.119759
3.93 -0.173716
3.94 -0.222454
3.95 -0.266378
3.96 -0.305183
3.97 -0.338637
3.98 -0.367208
3.99 -0.390104
4 -0.408003
4.01 -0.420557
4.02 -0.427628
4.03 -0.429631
4.04 -0.42565
4.05 -0.416461
4.06 -0.401603
4.07 -0.381087
4.08 -0.355365
4.09 -0.32376
4.1 -0.287305
4.11 -0.245842
4.12 -0.19991
4.13 -0.150227
4.14 -0.0970064
4.15 -0.0414433
4.16 0.0158709
4.17 0.0738953
4.18 0.131726
4.19 0.188195
4.2 0.242513
4.21 0.293439
4.22 0.340173
4.23 0.382044
4.24 0.41775
4.25 0.447482
4.26 0.47006
4.27 0.48571
4.28 0.494386
4.29 0.495646
4.3 0.490585
4.31 0.478836
4.32 0.461573
4.33 0.439371
4.34 0.412822
4.35 0.383181
4.36 0.350981
4.37 0.317396
4.38 0.283187
4.39 0.249215
4.4 0.216106
4.41 0.18466
4.42 0.15517
4.43 0.128061
4.44 0.103625
4.45 0.0816874
4.46 0.062591
4.47 0.0457988
4.48 0.0312241
4.49 0.0185242
4.5 0.00721084
4.51 -0.00294261
4.52 -0.0124952
4.53 -0.0217471
4.54 -0.0310449
4.55 -0.0406083
4.56 -0.0506693
4.57 -0.0612298
4.58 -0.0723156
4.59 -0.0837853
4.6 -0.0954334
4.61 -0.106954
4.62 -0.118025
4.63 -0.128193
4.64 -0.137044
4.65 -0.144227
4.66 -0.149083
4.67 -0.15154
4.68 -0.150983
4.69 -0.147321
4.7 -0.140444
4.71 -0.129968
4.72 -0.116332
4.73 -0.099258
4.74 -0.0792187
4.75 -0.0564722
4.76 -0.0312281
4.77 -0.00414896
4.78 0.0245232
4.79 0.0541483
4.8 0.084297
4.81 0.114474
4.82 0.144275
4.83 0.173214
4.84 0.201039
4.85 0.227451
4.86 0.252173
4.87 0.275244
4.88 0.296334
4.89 0.31568
4.9 0.333227
4.91 0.349042
4.92 0.36338
4.93 0.376157
4.94 0.387722
4.95 0.398103
4.96 0.407412
4.97 0.415794
4.98 0.423137
4.99 0.429576
5 0.434969
5.01 0.439221
5.02 0.442269
5.03 0.443741
5.04 0.443653
5.05 0.441632
5.06 0.437507
5.07 0.431183
5.08 0.422183
5.09 0.410712
5.1 0.39639
5.11 0.379308
5.12 0.359546
5.13 0.336911
5.14 0.311884
5.15 0.284382
5.16 0.254831
5.17 0.223524
5.18 0.190695
5.19 0.156861
5.2 0.122295
5.21 0.0874537
5.22 0.0526788
5.23 0.0183682
5.24 -0.0152344
5.25 -0.0477299
5.26 -0.0789903
5.27 -0.108814
5.28 -0.136994
5.29 -0.163628
5.3 -0.188459
5.31 -0.21171
5.32 -0.23336
5.33 -0.253457
5.34 -0.272234
5.35 -0.28961
5.36 -0.305874
5.37 -0.32105
5.38 -0.335218
5.39 -0.348516
5.4 -0.360838
5.41 -0.372325
5.42 -0.382879
5.43 -0.392445
5.44 -0.401021
5.45 -0.408341
5.46 -0.414472
5.47 -0.419186
5.48 -0.422397
5.49 -0.424095
5.5 -0.423991
5.51 -0.422278
5.52 -0.418772
5.53 -0.413571
5.54 -0.406797
5.55 -0.398396
5.56 -0.388717
5.57 -0.37781
5.58 -0.365982
5.59 -0.353478
5.6 -0.340545
5.61 -0.327499
5.62 -0.314629
5.63 -0.302213
5.64 -0.290496
5.65 -0.279802
5.66 -0.270214
5.67 -0.262068
5.68 -0.255377
5.69 -0.250251
5.7 -0.246838
5.71 -0.244963
5.72 -0.24481
5.73 -0.246127
5.74 -0.248869
5.75 -0.252943
5.76 -0.25808
5.77 -0.264252
5.78 -0.271149
5.79 -0.27863
5.8 -0.286496
5.81 -0.29454
5.82 -0.302577
5.83 -0.310422
5.84 -0.31789
5.85 -0.324788
5.86 -0.33101
5.87 -0.336251
5.88 -0.340488
5.89 -0.343472
5.9 -0.34504
5.91 -0.345134
5.92 -0.343357
5.93 -0.339812
5.94 -0.334175
5.95 -0.326362
5.96 -0.316364
5.97 -0.303801
5.98 -0.288945
5.99 -0.271521
6 -0.251669
6.01 -0.229522
6.02 -0.204983
6.03 -0.178527
6.04 -0.150183
6.05 -0.120401
6.06 -0.0895368
6.07 -0.0579774
6.08 -0.026246
6.09 0.00514405
6.1 0.0356681
6.11 0.0648245
6.12 0.0919274
6.13 0.116737
6.14 0.138449
6.15 0.156952
6.16 0.171876
6.17 0.1828
6.18 0.190027
6.19 0.193024
6.2 0.192389
6.21 0.188205
6.22 0.180775
6.23 0.170845
6.24 0.158693
6.25 0.145285
6.26 0.131256
6.27 0.117472
6.28 0.104636
6.29 0.0938348
6.3 0.0855504
6.31 0.0806696
6.32 0.0798605
6.33 0.0832813
6.34 0.0920288
6.35 0.105566
6.36 0.124404
6.37 0.148317
6.38 0.17677
6.39 0.20987
6.4 0.2464
6.41 0.285966
6.42 0.327523
6.43 0.370117
6.44 0.412684
6.45 0.454195
6.46 0.493426
6.47 0.529376
6.48 0.561209
6.49 0.587485
6.5 0.608126
6.51 0.621765
6.52 0.628368
6.53 0.627674
6.54 0.618948
6.55 0.603145
6.56 0.579579
6.57 0.549331
6.58 0.51283
6.59 0.470481
6.6 0.423658
6.61 0.372719
6.62 0.319076
6.63 0.263586
6.64 0.207293
6.65 0.151172
6.66 0.0962886
6.67 0.0433702
6.68 -0.00676134
6.69 -0.0533147
6.7 -0.0961373
6.71 -0.13418
6.72 -0.167804
6.73 -0.196574
6.74 -0.220443
6.75 -0.239905
6.76 -0.254452
6.77 -0.265087
6.78 -0.271807
6.79 -0.275086
6.8 -0.275538
6.81 -0.273252
6.82 -0.269033
6.83 -0.263101
6.84 -0.255908
6.85 -0.247819
6.86 -0.239045
6.87 -0.229899
6.88 -0.220516
6.89 -0.211038
6.9 -0.201537
6.91 -0.192052
6.92 -0.182582
6.93 -0.173113
6.94 -0.163614
6.95 -0.154057
6.96 -0.144411
6.97 -0.134682
6.98 -0.124875
6.99 -0.115043
7 -0.105252
7.01 -0.0956201
7.02 -0.0862481
7.03 -0.0773319
7.04 -0.0690003
7.05 -0.0614252
7.06 -0.0548355
7.07 -0.0492727
7.08 -0.0450312
7.09 -0.0420713
7.1 -0.0404982
7.11 -0.0403723
7.12 -0.0415156
7.13 -0.04401
7.14 -0.0475284
7.15 -0.0519246
7.16 -0.0569203
7.17 -0.0621852
7.18 -0.0673674
7.19 -0.0721095
7.2 -0.0760121
7.21 -0.0786636
7.22 -0.0798394
7.23 -0.0789245
7.24 -0.0759416
7.25 -0.0704828
7.26 -0.062421
7.27 -0.05184
7.28 -0.038389
7.29 -0.0225459
7.3 -0.00424037
7.31 0.0161726
7.32 0.0383063
7.33 0.0619175
7.34 0.0863831
7.35 0.111299
7.36 0.136092
7.37 0.160286
7.38 0.183226
7.39 0.20459
7.4 0.223707
7.41 0.240291
7.42 0.254039
7.43 0.2644
7.44 0.271575
7.45 0.275028
7.46 0.275033
7.47 0.271603
7.48 0.264667
7.49 0.254793
7.5 0.241867
7.51 0.226528
7.52 0.209055
7.53 0.189802
7.54 0.169334
7.55 0.147949
7.56 0.126184
7.57 0.104411
7.58 0.0830537
7.59 0.0623925
7.6 0.0428887
7.61 0.024661
7.62 0.00800049
7.63 -0.00689011
7.64 -0.020053
7.65 -0.0311153
7.66 -0.0403497
7.67 -0.0476131
7.68 -0.0529699
7.69 -0.0566231
7.7 -0.0584346
7.71 -0.0587882
7.72 -0.0576866
7.73 -0.0553353
7.74 -0.0519527
7.75 -0.0476061
7.76 -0.0426022
7.77 -0.0370606
7.78 -0.0312078
7.79 -0.0252305
7.8 -0.0193378
7.81 -0.0137058
7.82 -0.00856393
7.83 -0.00408752
7.84 -0.000434715
7.85 0.00211446
7.86 0.00353447
7.87 0.00352721
7.88 0.00205959
7.89 -0.000964543
7.9 -0.00574785
7.91 -0.0121314
7.92 -0.0203305
7.93 -0.0301423
7.94 -0.0415148
7.95 -0.0543895
7.96 -0.0684462
7.97 -0.0836112
7.98 -0.0994999
7.99 -0.115858
8 -0.132343
8.01 -0.148628
8.02 -0.164287
8.03 -0.179037
8.04 -0.192505
8.05 -0.204314
8.06 -0.21436
8.07 -0.222089
8.08 -0.227635
8.09 -0.230725
8.1 -0.231299
8.11 -0.229576
8.12 -0.225288
8.13 -0.218971
8.14 -0.210666
8.15 -0.200709
8.16 -0.189503
8.17 -0.177291
8.18 -0.164588
8.19 -0.151736
8.2 -0.13915
8.21 -0.127138
8.22 -0.116131
8.23 -0.106247
8.24 -0.0978041
8.25 -0.090858
8.26 -0.0853984
8.27 -0.0815269
8.28 -0.0789204
8.29 -0.0775082
8.3 -0.0769147
8.31 -0.0768129
8.32 -0.0767995
8.33 -0.0764644
8.34 -0.075301
8.35 -0.0729197
8.36 -0.0689303
8.37 -0.0628049
8.38 -0.0544859
8.39 -0.0434134
8.4 -0.0296903
8.41 -0.0131975
8.42 0.00615522
8.43 0.0279446
8.44 0.0522556
8.45 0.0784607
8.46 0.106238
8.47 0.135083
8.48 0.164396
8.49 0.193583
8.5 0.222043
8.51 0.249154
8.52 0.274256
8.53 0.297041
8.54 0.316579
8.55 0.332933
8.56 0.345554
8.57 0.354232
8.58 0.359172
8.59 0.359808
8.6 0.356878
8.61 0.350272
8.62 0.340415
8.63 0.327853
8.64 0.312758
8.65 0.295976
8.66 0.277882
8.67 0.25912
8.68 0.240211
8.69 0.221731
8.7 0.204075
8.71 0.187753
8.72 0.173045
8.73 0.160144
8.74 0.149406
8.75 0.140629
8.76 0.134021
8.77 0.129307
8.78 0.126296
8.79 0.124815
8.8 0.124382
8.81 0.124738
8.82 0.125394
8.83 0.125969
8.84 0.125996
8.85 0.12517
8.86 0.122982
8.87 0.119251
8.88 0.113689
8.89 0.106014
8.9 0.0963305
8.91 0.084299
8.92 0.070238
8.93 0.0541597
8.94 0.0362279
8.95 0.0168434
8.96 -0.00386478
8.97 -0.0253548
8.98 -0.0472939
8.99 -0.0692146
9 -0.090725
9.01 -0.111241
9.02 -0.13048
9.03 -0.147929
9.04 -0.163197
9.05 -0.176127
9.06 -0.186043
9.07 -0.193141
9.08 -0.196982
9.09 -0.197546
9.1 -0.194965
9.11 -0.188876
9.12 -0.179843
9.13 -0.16772
9.14 -0.152887
9.15 -0.135689
9.16 -0.116249
9.17 -0.0952073
9.18 -0.0728005
9.19 -0.049572
9.2 -0.025949
9.21 -0.00241788
9.22 0.0206016
9.23 0.0425765
9.24 0.0631436
9.25 0.081936
9.26 0.0984281
9.27 0.112589
9.28 0.123829
9.29 0.132214
9.3 0.13756
9.31 0.139625
9.32 0.138742
9.33 0.134548
9.34 0.12752
9.35 0.117712
9.36 0.105274
9.37 0.0907014
9.38 0.0740031
9.39 0.0557696
9.4 0.0362365
9.41 0.0157607
9.42 -0.00527215
9.43 -0.0265835
9.44 -0.0478389
9.45 -0.068781
9.46 -0.0891641
9.47 -0.108869
9.48 -0.127632
9.49 -0.145501
9.5 -0.162353
9.51 -0.178204
9.52 -0.193144
9.53 -0.207116
9.54 -0.220333
9.55 -0.232809
9.56 -0.244667
9.57 -0.256008
9.58 -0.26684
9.59 -0.277258
9.6 -0.287215
9.61 -0.296685
9.62 -0.305601
9.63 -0.313753
9.64 -0.321066
9.65 -0.327216
9.66 -0.332018
9.67 -0.335234
9.68 -0.336415
9.69 -0.335533
9.7 -0.332037
9.71 -0.325897
9.72 -0.316907
9.73 -0.304727
9.74 -0.289635
9.75 -0.27123
9.76 -0.249928
9.77 -0.225811
9.78 -0.199039
9.79 -0.170192
9.8 -0.139429
9.81 -0.107466
9.82 -0.0747612
9.83 -0.0419402
9.84 -0.00955968
9.85 0.0216218
9.86 0.0511613
9.87 0.0784173
9.88 0.10281
9.89 0.12419
9.9 0.141648
9.91 0.15549
9.92 0.165262
9.93 0.170936
9.94 0.172849
9.95 0.170616
9.96 0.165073
9.97 0.156241
9.98 0.144646
9.99 0.130856
10 0.115165
10.01 0.0983369
10.02 0.0807796
10.03 0.0630654
10.04 0.0456284
10.05 0.0289821
10.06 0.0133698
10.07 -0.000794885
10.08 -0.0133708
10.09 -0.0242663
10.1 -0.0332608
10.11 -0.040598
10.12 -0.046159
10.13 -0.0502155
10.14 -0.0529328
10.15 -0.0544415
10.16 -0.0550807
10.17 -0.0549677
10.18 -0.0543803
10.19 -0.0534759
10.2 -0.0523965
10.21 -0.0512528
10.22 -0.0500949
10.23 -0.0489299
10.24 -0.0477203
10.25 -0.0463752
10.26 -0.0448046
10.27 -0.0428208
10.28 -0.0403208
10.29 -0.0371332
10.3 -0.0330897
10.31 -0.0281619
10.32 -0.0221136
10.33 -0.0150566
10.34 -0.0069277
10.35 0.0022073
10.36 0.0121642
10.37 0.0228819
10.38 0.0340355
10.39 0.0454161
10.4 0.0567134
10.41 0.0676656
10.42 0.0778777
10.43 0.0871729
10.44 0.0952041
10.45 0.101778
10.46 0.106814
10.47 0.11001
10.48 0.111581
10.49 0.111401
10.5 0.109685
10.51 0.106658
10.52 0.10248
10.53 0.0975968
10.54 0.0923
10.55 0.0870241
10.56 0.0821335
10.57 0.0781008
10.58 0.0751645
10.59 0.0737979
10.6 0.0741408
10.61 0.0763693
10.62 0.0807155
10.63 0.0869476
10.64 0.0952188
10.65 0.105136
10.66 0.116473
10.67 0.128893
10.68 0.14189
10.69 0.155014
10.7 0.16772
10.71 0.179488
10.72 0.189707
10.73 0.198074
10.74 0.203797
10.75 0.206828
10.76 0.206717
10.77 0.2032
10.78 0.196483
10.79 0.186049
10.8 0.172541
10.81 0.155927
10.82 0.136564
10.83 0.11501
10.84 0.0914661
10.85 0.0667274
10.86 0.0412224
10.87 0.0155753
10.88 -0.00970774
10.89 -0.0339712
10.9 -0.0568859
10.91 -0.0778909
10.92 -0.0966821
10.93 -0.113101
10.94 -0.126658
10.95 -0.137624
10.96 -0.14569
10.97 -0.151072
10.98 -0.153946
10.99 -0.154273
11 -0.152575
11.01 -0.148869
11.02 -0.143576
11.03 -0.136951
11.04 -0.129176
11.05 -0.120601
11.06 -0.111333
11.07 -0.101602
11.08 -0.0915124
11.09 -0.081136
11.1 -0.0705429
11.11 -0.0597146
11.12 -0.0486601
11.13 -0.0373439
11.14 -0.0257152
11.15 -0.013777
11.16 -0.00146574
11.17 0.0111649
11.18 0.0240905
11.19 0.037229
11.2 0.0504514
11.21 0.0635842
11.22 0.0764329
11.23 0.0887479
11.24 0.100233
11.25 0.110704
11.26 0.119658
11.27 0.127036
11.28 0.132449
11.29 0.135674
11.3 0.136697
11.31 0.135058
11.32 0.131082
11.33 0.124565
11.34 0.115691
11.35 0.104739
11.36 0.0917368
11.37 0.0772704
11.38 0.0615691
11.39 0.0451427
11.4 0.0284297
11.41 0.0119352
11.42 -0.00392447
11.43 -0.0186182
11.44 -0.0317894
11.45 -0.0431404
11.46 -0.0521881
11.47 -0.059014
11.48 -0.0632171
11.49 -0.0649708
11.5 -0.0643289
11.51 -0.0612914
11.52 -0.0563389
11.53 -0.0495371
11.54 -0.0414261
11.55 -0.032351
11.56 -0.0227332
11.57 -0.0130225
11.58 -0.00366427
11.59 0.00498086
11.6 0.0125588
11.61 0.0187092
11.62 0.0233646
11.63 0.0261258
11.64 0.0271512
11.65 0.0263447
11.66 0.02376
11.67 0.0196826
11.68 0.0141023
11.69 0.00747694
11.7 2.58848e-07
11.71 -0.00799547
11.72 -0.0161952
11.73 -0.0242844
11.74 -0.0320057
11.75 -0.0390881
11.76 -0.0453255
11.77 -0.0506326
11.78 -0.0547675
11.79 -0.0578501
11.8 -0.0597852
11.81 -0.0606758
11.82 -0.0606576
11.83 -0.059774
11.84 -0.0582868
11.85 -0.0562995
11.86 -0.0540144
11.87 -0.0515813
11.88 -0.0491391
11.89 -0.0467891
11.9 -0.0446151
11.91 -0.0426375
11.92 -0.0408452
11.93 -0.0391968
11.94 -0.0375947
11.95 -0.0359206
11.96 -0.0340353
11.97 -0.0317953
11.98 -0.0290038
11.99 -0.0255848
12 -0.0213131
12.01 -0.0161718
12.02 -0.0100807
12.03 -0.00297952
12.04 0.00499899
12.05 0.0138885
12.06 0.0234435
12.07 0.033517
12.08 0.0438674
12.09 0.054229
12.1 0.0642732
12.11 0.0737325
12.12 0.0822741
12.13 0.0895619
12.14 0.0954579
12.15 0.0994546
12.16 0.101634
12.17 0.10171
12.18 0.0996119
12.19 0.0954794
12.2 0.0890627
12.21 0.0807974
12.22 0.070679
12.23 0.0589962
12.24 0.0460741
12.25 0.032095
12.26 0.0175113
12.27 0.00258956
12.28 -0.0123114
12.29 -0.0269153
12.3 -0.0408728
12.31 -0.054038
12.32 -0.0661227
12.33 -0.0770376
12.34 -0.0867226
12.35 -0.0950203
12.36 -0.102109
12.37 -0.107901
12.38 -0.11259
12.39 -0.116294
12.4 -0.119101
12.41 -0.121255
12.42 -0.122829
12.43 -0.124018
12.44 -0.124925
12.45 -0.125632
12.46 -0.126208
12.47 -0.126651
12.48 -0.126948
12.49 -0.127035
12.5 -0.126793
12.51 -0.126138
12.52 -0.124841
12.53 -0.122814
12.54 -0.119862
12.55 -0.115793
12.56 -0.110584
12.57 -0.103926
12.58 -0.0959454
12.59 -0.0865199
12.6 -0.0756709
12.61 -0.0635793
12.62 -0.0501915
12.63 -0.0358746
12.64 -0.0207668
12.65 -0.00516862
12.66 0.0106229
12.67 0.0262703
12.68 0.0414767
12.69 0.0558807
12.7 0.0691816
12.71 0.0811838
12.72 0.0914598
12.73 0.100061
12.74 0.106682
12.75 0.111351
12.76 0.114131
12.77 0.114908
12.78 0.114058
12.79 0.111594
12.8 0.107876
12.81 0.103182
12.82 0.097787
12.83 0.0920858
12.84 0.0863957
12.85 0.0810576
