# xPDFsuite Configuration #
[PDF]
wavelength = 0.1
dataformat = Qnm
inputfile = A3-Li-TiO2-12h-p2_026.chi
backgroundfile = A2_Bkg-Li_d22-00000.chi
mode = xray
bgscale = 0.91
composition = TiO2
outputtype = gr
qmaxinst = 21.4
qmin = 0.1
qmax = 21.4
rmax = 100.0
rmin = 0.0
rstep = 0.01
rpoly = 0.9

[Misc]
inputdir = D:/APS_March_2019/Run3/Processed-Data/A3-Li-TiO2-12h-p2/chi-files
savedir = D:/APS_March_2019/Run3/Processed-Data/A3-Li-TiO2-12h-p2
backgroundfilefull = D:/APS_March_2019/Calib-Bkg/A2_Bkg-Li_d22-00000.chi

#### start data
#S 1
#L r($\AA$)  G($\AA^{-2}$)
0 0
0.01 -0.000593912
0.02 -0.00116197
0.03 -0.00167668
0.04 -0.00211225
0.05 -0.00245921
0.06 -0.00268332
0.07 -0.00279106
0.08 -0.00277353
0.09 -0.00262151
0.1 -0.00235867
0.11 -0.00198025
0.12 -0.00151338
0.13 -0.000979497
0.14 -0.000396956
0.15 0.000200984
0.16 0.000786083
0.17 0.00132855
0.18 0.00180439
0.19 0.00216665
0.2 0.00240844
0.21 0.00249153
0.22 0.00238966
0.23 0.00210229
0.24 0.00157061
0.25 0.000814953
0.26 -0.000190823
0.27 -0.00147529
0.28 -0.00301219
0.29 -0.00485144
0.3 -0.00696397
0.31 -0.00934744
0.32 -0.0120251
0.33 -0.0149391
0.34 -0.018095
0.35 -0.0214406
0.36 -0.024917
0.37 -0.028466
0.38 -0.0319878
0.39 -0.0353618
0.4 -0.0384427
0.41 -0.0411072
0.42 -0.0430387
0.43 -0.0441382
0.44 -0.0440963
0.45 -0.0425643
0.46 -0.0394432
0.47 -0.0340953
0.48 -0.0264688
0.49 -0.016221
0.5 -0.00274818
0.51 0.0137648
0.52 0.0340399
0.53 0.0580004
0.54 0.085626
0.55 0.117557
0.56 0.153057
0.57 0.192402
0.58 0.235224
0.59 0.280867
0.6 0.329324
0.61 0.379459
0.62 0.430649
0.63 0.481964
0.64 0.532457
0.65 0.580708
0.66 0.625851
0.67 0.66659
0.68 0.701192
0.69 0.729315
0.7 0.748624
0.71 0.758782
0.72 0.759059
0.73 0.747135
0.74 0.724291
0.75 0.688676
0.76 0.640635
0.77 0.581182
0.78 0.508499
0.79 0.425577
0.8 0.332378
0.81 0.230137
0.82 0.12121
0.83 0.00634622
0.84 -0.111621
0.85 -0.230754
0.86 -0.348689
0.87 -0.463428
0.88 -0.571896
0.89 -0.672534
0.9 -0.763413
0.91 -0.841271
0.92 -0.906524
0.93 -0.956072
0.94 -0.989868
0.95 -1.00836
0.96 -1.00869
0.97 -0.994313
0.98 -0.964441
0.99 -0.920483
1 -0.865322
1.01 -0.799034
1.02 -0.725725
1.03 -0.647463
1.04 -0.566989
1.05 -0.487229
1.06 -0.411529
1.07 -0.342178
1.08 -0.281754
1.09 -0.233777
1.1 -0.19839
1.11 -0.179172
1.12 -0.176126
1.13 -0.189168
1.14 -0.220986
1.15 -0.268079
1.16 -0.331202
1.17 -0.408409
1.18 -0.496611
1.19 -0.59527
1.2 -0.699816
1.21 -0.80773
1.22 -0.915671
1.23 -1.02059
1.24 -1.1182
1.25 -1.20641
1.26 -1.28216
1.27 -1.34164
1.28 -1.38508
1.29 -1.40826
1.3 -1.41192
1.31 -1.39614
1.32 -1.35842
1.33 -1.30298
1.34 -1.22907
1.35 -1.13943
1.36 -1.03754
1.37 -0.924331
1.38 -0.804936
1.39 -0.682205
1.4 -0.559858
1.41 -0.441134
1.42 -0.330699
1.43 -0.230494
1.44 -0.143798
1.45 -0.0741589
1.46 -0.0212003
1.47 0.0108246
1.48 0.0232964
1.49 0.0162759
1.5 -0.0120422
1.51 -0.0573755
1.52 -0.120208
1.53 -0.197312
1.54 -0.285357
1.55 -0.382833
1.56 -0.484977
1.57 -0.588835
1.58 -0.690816
1.59 -0.788052
1.6 -0.875913
1.61 -0.953111
1.62 -1.01652
1.63 -1.06329
1.64 -1.09401
1.65 -1.10478
1.66 -1.09747
1.67 -1.07204
1.68 -1.02729
1.69 -0.967043
1.7 -0.890709
1.71 -0.801326
1.72 -0.701494
1.73 -0.592203
1.74 -0.47736
1.75 -0.358828
1.76 -0.239124
1.77 -0.120348
1.78 -0.00499319
1.79 0.105924
1.8 0.210745
1.81 0.30826
1.82 0.398762
1.83 0.480725
1.84 0.555388
1.85 0.622971
1.86 0.683597
1.87 0.739025
1.88 0.789513
1.89 0.836505
1.9 0.881026
1.91 0.923721
1.92 0.96557
1.93 1.00697
1.94 1.04818
1.95 1.08916
1.96 1.12941
1.97 1.1684
1.98 1.20502
1.99 1.23794
2 1.26623
2.01 1.28717
2.02 1.3002
2.03 1.30333
2.04 1.29416
2.05 1.27295
2.06 1.23643
2.07 1.18524
2.08 1.11907
2.09 1.03595
2.1 0.938779
2.11 0.826558
2.12 0.701389
2.13 0.565692
2.14 0.420006
2.15 0.268452
2.16 0.113218
2.17 -0.0425885
2.18 -0.196113
2.19 -0.343328
2.2 -0.482333
2.21 -0.609908
2.22 -0.722801
2.23 -0.820862
2.24 -0.899699
2.25 -0.960379
2.26 -1.00224
2.27 -1.02325
2.28 -1.02695
2.29 -1.01207
2.3 -0.981491
2.31 -0.937902
2.32 -0.881978
2.33 -0.818418
2.34 -0.749387
2.35 -0.678159
2.36 -0.607705
2.37 -0.541633
2.38 -0.481829
2.39 -0.431154
2.4 -0.392063
2.41 -0.364663
2.42 -0.352256
2.43 -0.353429
2.44 -0.36847
2.45 -0.398009
2.46 -0.439056
2.47 -0.491721
2.48 -0.553131
2.49 -0.620938
2.5 -0.693304
2.51 -0.767031
2.52 -0.839555
2.53 -0.908268
2.54 -0.971274
2.55 -1.02479
2.56 -1.06865
2.57 -1.10041
2.58 -1.11863
2.59 -1.1241
2.6 -1.11406
2.61 -1.09085
2.62 -1.05445
2.63 -1.00488
2.64 -0.945013
2.65 -0.874773
2.66 -0.796815
2.67 -0.712903
2.68 -0.624275
2.69 -0.533316
2.7 -0.44144
2.71 -0.3502
2.72 -0.260719
2.73 -0.174503
2.74 -0.0917028
2.75 -0.0131237
2.76 0.0610493
2.77 0.131338
2.78 0.197342
2.79 0.260234
2.8 0.320469
2.81 0.378699
2.82 0.435885
2.83 0.492664
2.84 0.54972
2.85 0.60753
2.86 0.666522
2.87 0.726613
2.88 0.787785
2.89 0.849545
2.9 0.911245
2.91 0.971822
2.92 1.03038
2.93 1.08533
2.94 1.13523
2.95 1.1792
2.96 1.21417
2.97 1.24024
2.98 1.25537
2.99 1.25784
3 1.24824
3.01 1.22358
3.02 1.18537
3.03 1.13326
3.04 1.06628
3.05 0.987097
3.06 0.894908
3.07 0.792048
3.08 0.680333
3.09 0.560472
3.1 0.435655
3.11 0.30744
3.12 0.178144
3.13 0.0497922
3.14 -0.0749811
3.15 -0.194941
3.16 -0.3079
3.17 -0.412102
3.18 -0.507334
3.19 -0.590771
3.2 -0.663385
3.21 -0.724371
3.22 -0.77273
3.23 -0.810254
3.24 -0.835601
3.25 -0.85048
3.26 -0.855724
3.27 -0.850961
3.28 -0.838537
3.29 -0.818337
3.3 -0.791561
3.31 -0.759348
3.32 -0.721401
3.33 -0.679218
3.34 -0.632735
3.35 -0.582191
3.36 -0.52811
3.37 -0.469784
3.38 -0.40778
3.39 -0.34174
3.4 -0.271251
3.41 -0.196727
3.42 -0.117379
3.43 -0.0337414
3.44 0.0540554
3.45 0.146141
3.46 0.241422
3.47 0.339598
3.48 0.439565
3.49 0.540206
3.5 0.640136
3.51 0.738066
3.52 0.832137
3.53 0.920654
3.54 1.00259
3.55 1.07459
3.56 1.13674
3.57 1.18684
3.58 1.22301
3.59 1.24591
3.6 1.25226
3.61 1.24363
3.62 1.21962
3.63 1.17898
3.64 1.12457
3.65 1.05526
3.66 0.973429
3.67 0.880909
3.68 0.778016
3.69 0.668239
3.7 0.552834
3.71 0.434111
3.72 0.314241
3.73 0.195356
3.74 0.0791084
3.75 -0.032577
3.76 -0.138035
3.77 -0.236837
3.78 -0.326689
3.79 -0.408226
3.8 -0.480866
3.81 -0.54392
3.82 -0.598925
3.83 -0.645179
3.84 -0.684231
3.85 -0.717068
3.86 -0.743991
3.87 -0.766931
3.88 -0.786486
3.89 -0.803847
3.9 -0.820016
3.91 -0.835665
3.92 -0.851473
3.93 -0.867856
3.94 -0.88502
3.95 -0.902874
3.96 -0.921287
3.97 -0.939767
3.98 -0.957751
3.99 -0.974451
4 -0.989295
4.01 -1.00105
4.02 -1.00924
4.03 -1.01315
4.04 -1.01154
4.05 -1.00476
4.06 -0.991711
4.07 -0.972654
4.08 -0.948
4.09 -0.917144
4.1 -0.881658
4.11 -0.841808
4.12 -0.798628
4.13 -0.753437
4.14 -0.70724
4.15 -0.661453
4.16 -0.617372
4.17 -0.576408
4.18 -0.539265
4.19 -0.507758
4.2 -0.482013
4.21 -0.462688
4.22 -0.450774
4.23 -0.44528
4.24 -0.446895
4.25 -0.454548
4.26 -0.467259
4.27 -0.484605
4.28 -0.504611
4.29 -0.526087
4.3 -0.547359
4.31 -0.566954
4.32 -0.582541
4.33 -0.59327
4.34 -0.597208
4.35 -0.592754
4.36 -0.579796
4.37 -0.555744
4.38 -0.521522
4.39 -0.476523
4.4 -0.419927
4.41 -0.353629
4.42 -0.276843
4.43 -0.19149
4.44 -0.0989179
4.45 0.000218125
4.46 0.103339
4.47 0.209111
4.48 0.315543
4.49 0.420898
4.5 0.522846
4.51 0.620319
4.52 0.711287
4.53 0.794223
4.54 0.868876
4.55 0.932538
4.56 0.986185
4.57 1.0289
4.58 1.05982
4.59 1.08054
4.6 1.08973
4.61 1.08913
4.62 1.07948
4.63 1.06068
4.64 1.03504
4.65 1.00273
4.66 0.965269
4.67 0.923977
4.68 0.879427
4.69 0.833169
4.7 0.785988
4.71 0.738795
4.72 0.692294
4.73 0.647391
4.74 0.604358
4.75 0.563754
4.76 0.526054
4.77 0.491143
4.78 0.459709
4.79 0.431444
4.8 0.406445
4.81 0.385062
4.82 0.366771
4.83 0.351996
4.84 0.340434
4.85 0.331894
4.86 0.326773
4.87 0.324421
4.88 0.325045
4.89 0.328418
4.9 0.334116
4.91 0.342349
4.92 0.35237
4.93 0.363966
4.94 0.37671
4.95 0.389999
4.96 0.403259
4.97 0.415849
4.98 0.427058
4.99 0.435947
5 0.4421
5.01 0.444235
5.02 0.441941
5.03 0.43466
5.04 0.420973
5.05 0.401374
5.06 0.374686
5.07 0.34093
5.08 0.300568
5.09 0.252396
5.1 0.198079
5.11 0.137511
5.12 0.0713464
5.13 0.000976284
5.14 -0.0732183
5.15 -0.149511
5.16 -0.226741
5.17 -0.303485
5.18 -0.378485
5.19 -0.449889
5.2 -0.5167
5.21 -0.577727
5.22 -0.630961
5.23 -0.67661
5.24 -0.712763
5.25 -0.73932
5.26 -0.756505
5.27 -0.762455
5.28 -0.75918
5.29 -0.74603
5.3 -0.723645
5.31 -0.693635
5.32 -0.655552
5.33 -0.611771
5.34 -0.563091
5.35 -0.510642
5.36 -0.456088
5.37 -0.400503
5.38 -0.345234
5.39 -0.291385
5.4 -0.240241
5.41 -0.192257
5.42 -0.148666
5.43 -0.10971
5.44 -0.0755244
5.45 -0.0470866
5.46 -0.0234602
5.47 -0.00504636
5.48 0.00857292
5.49 0.0182077
5.5 0.023604
5.51 0.0260559
5.52 0.0258978
5.53 0.0236817
5.54 0.0201701
5.55 0.0157096
5.56 0.010866
5.57 0.00597319
5.58 0.00131168
5.59 -0.00299895
5.6 -0.00684696
5.61 -0.0103123
5.62 -0.0135225
5.63 -0.0166623
5.64 -0.019977
5.65 -0.0237778
5.66 -0.0283375
5.67 -0.0338407
5.68 -0.0407507
5.69 -0.0489868
5.7 -0.0587762
5.71 -0.070154
5.72 -0.0828769
5.73 -0.0969927
5.74 -0.112022
5.75 -0.127639
5.76 -0.143387
5.77 -0.15876
5.78 -0.173057
5.79 -0.185782
5.8 -0.196372
5.81 -0.203896
5.82 -0.208289
5.83 -0.208609
5.84 -0.204655
5.85 -0.196411
5.86 -0.18286
5.87 -0.164841
5.88 -0.141933
5.89 -0.114341
5.9 -0.0828057
5.91 -0.0470171
5.92 -0.00816121
5.93 0.0333682
5.94 0.0769916
5.95 0.121794
5.96 0.167162
5.97 0.212305
5.98 0.256544
5.99 0.299041
6 0.339468
6.01 0.376947
6.02 0.411215
6.03 0.442077
6.04 0.468653
6.05 0.491475
6.06 0.510009
6.07 0.524324
6.08 0.534864
6.09 0.540977
6.1 0.543601
6.11 0.542657
6.12 0.538277
6.13 0.531091
6.14 0.520868
6.15 0.508247
6.16 0.493392
6.17 0.476342
6.18 0.457588
6.19 0.437059
6.2 0.41507
6.21 0.391807
6.22 0.36725
6.23 0.341747
6.24 0.315339
6.25 0.288233
6.26 0.260655
6.27 0.232757
6.28 0.204826
6.29 0.17712
6.3 0.149945
6.31 0.123523
6.32 0.0983598
6.33 0.0745884
6.34 0.0525694
6.35 0.0327416
6.36 0.0150601
6.37 0.000107657
6.38 -0.0122296
6.39 -0.0219032
6.4 -0.028564
6.41 -0.032739
6.42 -0.034266
6.43 -0.0335299
6.44 -0.0309776
6.45 -0.0267377
6.46 -0.0215503
6.47 -0.0158366
6.48 -0.0101687
6.49 -0.00505215
6.5 -0.0012365
6.51 0.000974144
6.52 0.00102433
6.53 -0.0016284
6.54 -0.00693899
6.55 -0.0155898
6.56 -0.0272904
6.57 -0.0420191
6.58 -0.0599233
6.59 -0.0802701
6.6 -0.10297
6.61 -0.127348
6.62 -0.152762
6.63 -0.178608
6.64 -0.204121
6.65 -0.228495
6.66 -0.250981
6.67 -0.27111
6.68 -0.287619
6.69 -0.300575
6.7 -0.309237
6.71 -0.313083
6.72 -0.312478
6.73 -0.306545
6.74 -0.296044
6.75 -0.281096
6.76 -0.2617
6.77 -0.238936
6.78 -0.212948
6.79 -0.184692
6.8 -0.154949
6.81 -0.124396
6.82 -0.0939319
6.83 -0.0643826
6.84 -0.0364824
6.85 -0.0107058
6.86 0.0118125
6.87 0.0311935
6.88 0.0467882
6.89 0.0582832
6.9 0.0660355
6.91 0.0693738
6.92 0.0690778
6.93 0.0652652
6.94 0.0580774
6.95 0.0483753
6.96 0.0363075
6.97 0.0226419
6.98 0.00792752
6.99 -0.00735734
7 -0.0226291
7.01 -0.0373867
7.02 -0.0512298
7.03 -0.0639016
7.04 -0.0748668
7.05 -0.0842376
7.06 -0.0917387
7.07 -0.0973254
7.08 -0.101215
7.09 -0.103159
7.1 -0.103573
7.11 -0.102501
7.12 -0.100011
7.13 -0.0964046
7.14 -0.0916071
7.15 -0.0858186
7.16 -0.0790569
7.17 -0.0711751
7.18 -0.0622533
7.19 -0.0519846
7.2 -0.0402544
7.21 -0.026917
7.22 -0.0113871
7.23 0.00624208
7.24 0.0264972
7.25 0.049613
7.26 0.0755199
7.27 0.10499
7.28 0.137506
7.29 0.173295
7.3 0.212375
7.31 0.254165
7.32 0.298787
7.33 0.345458
7.34 0.393703
7.35 0.442979
7.36 0.49248
7.37 0.541416
7.38 0.58903
7.39 0.634618
7.4 0.676979
7.41 0.715921
7.42 0.750335
7.43 0.779764
7.44 0.804218
7.45 0.822256
7.46 0.834862
7.47 0.841506
7.48 0.8422
7.49 0.837861
7.5 0.828027
7.51 0.814009
7.52 0.796294
7.53 0.775411
7.54 0.752529
7.55 0.728231
7.56 0.703471
7.57 0.678993
7.58 0.655641
7.59 0.633835
7.6 0.614306
7.61 0.597328
7.62 0.582928
7.63 0.571676
7.64 0.56293
7.65 0.556689
7.66 0.552549
7.67 0.549814
7.68 0.548024
7.69 0.54633
7.7 0.543979
7.71 0.540069
7.72 0.534054
7.73 0.524737
7.74 0.511783
7.75 0.494624
7.76 0.472238
7.77 0.445061
7.78 0.412204
7.79 0.373966
7.8 0.330736
7.81 0.281953
7.82 0.22894
7.83 0.171782
7.84 0.111204
7.85 0.0482098
7.86 -0.016754
7.87 -0.0825303
7.88 -0.148335
7.89 -0.21327
7.9 -0.276693
7.91 -0.337508
7.92 -0.39539
7.93 -0.449766
7.94 -0.499816
7.95 -0.545851
7.96 -0.587067
7.97 -0.623762
7.98 -0.656148
7.99 -0.683731
8 -0.707519
8.01 -0.727382
8.02 -0.743814
8.03 -0.75749
8.04 -0.768322
8.05 -0.77724
8.06 -0.78447
8.07 -0.790366
8.08 -0.79538
8.09 -0.79965
8.1 -0.803477
8.11 -0.806976
8.12 -0.810191
8.13 -0.813158
8.14 -0.815769
8.15 -0.81794
8.16 -0.819528
8.17 -0.820238
8.18 -0.820002
8.19 -0.818463
8.2 -0.81545
8.21 -0.810879
8.22 -0.804223
8.23 -0.795691
8.24 -0.784966
8.25 -0.771934
8.26 -0.756787
8.27 -0.739086
8.28 -0.719233
8.29 -0.69716
8.3 -0.672803
8.31 -0.646534
8.32 -0.618143
8.33 -0.587961
8.34 -0.556097
8.35 -0.52247
8.36 -0.487436
8.37 -0.450898
8.38 -0.413027
8.39 -0.373973
8.4 -0.333608
8.41 -0.292226
8.42 -0.249793
8.43 -0.206409
8.44 -0.162258
8.45 -0.117328
8.46 -0.0718901
8.47 -0.0260815
8.48 0.0198939
8.49 0.0657975
8.5 0.111317
8.51 0.156208
8.52 0.20016
8.53 0.242717
8.54 0.283759
8.55 0.322702
8.56 0.359378
8.57 0.393601
8.58 0.424684
8.59 0.452927
8.6 0.47782
8.61 0.499337
8.62 0.517741
8.63 0.532397
8.64 0.544065
8.65 0.552637
8.66 0.558264
8.67 0.561527
8.68 0.562345
8.69 0.561388
8.7 0.558951
8.71 0.555312
8.72 0.550968
8.73 0.546166
8.74 0.54124
8.75 0.536422
8.76 0.531932
8.77 0.527834
8.78 0.524229
8.79 0.521075
8.8 0.518263
8.81 0.51569
8.82 0.513124
8.83 0.510327
8.84 0.507021
8.85 0.50301
8.86 0.49785
8.87 0.491472
8.88 0.483617
8.89 0.474022
8.9 0.462825
8.91 0.449744
8.92 0.43504
8.93 0.418863
8.94 0.401295
8.95 0.382835
8.96 0.363764
8.97 0.344559
8.98 0.325667
8.99 0.307724
9 0.291059
9.01 0.27631
9.02 0.263943
9.03 0.254092
9.04 0.247656
9.05 0.244315
9.06 0.244417
9.07 0.24816
9.08 0.25503
9.09 0.26536
9.1 0.27844
9.11 0.293918
9.12 0.311496
9.13 0.330347
9.14 0.349999
9.15 0.369746
9.16 0.388982
9.17 0.4069
9.18 0.423145
9.19 0.436973
9.2 0.447966
9.21 0.456052
9.22 0.460311
9.23 0.461279
9.24 0.458649
9.25 0.452405
9.26 0.443135
9.27 0.430606
9.28 0.415613
9.29 0.398499
9.3 0.379597
9.31 0.359608
9.32 0.338885
9.33 0.317946
9.34 0.297176
9.35 0.276975
9.36 0.257497
9.37 0.238989
9.38 0.221468
9.39 0.20481
9.4 0.189005
9.41 0.173656
9.42 0.158467
9.43 0.143012
9.44 0.126903
9.45 0.109458
9.46 0.0903966
9.47 0.0691915
9.48 0.0452452
9.49 0.0185808
9.5 -0.0115415
9.51 -0.0449309
9.52 -0.0816009
9.53 -0.121865
9.54 -0.164985
9.55 -0.210995
9.56 -0.259279
9.57 -0.309187
9.58 -0.360267
9.59 -0.41163
9.6 -0.46254
9.61 -0.512188
9.62 -0.56
9.63 -0.60475
9.64 -0.646274
9.65 -0.683787
9.66 -0.716572
9.67 -0.744863
9.68 -0.767618
9.69 -0.785382
9.7 -0.798154
9.71 -0.805604
9.72 -0.808782
9.73 -0.80751
9.74 -0.802608
9.75 -0.794776
9.76 -0.784249
9.77 -0.772093
9.78 -0.75878
9.79 -0.744971
9.8 -0.731229
9.81 -0.71815
9.82 -0.706015
9.83 -0.695201
9.84 -0.685963
9.85 -0.6782
9.86 -0.672153
9.87 -0.667471
9.88 -0.663975
9.89 -0.661436
9.9 -0.659387
9.91 -0.657462
9.92 -0.65523
9.93 -0.652306
9.94 -0.648145
9.95 -0.642608
9.96 -0.635223
9.97 -0.625837
9.98 -0.614492
9.99 -0.600742
10 -0.585067
10.01 -0.567428
10.02 -0.548032
10.03 -0.527337
10.04 -0.505494
10.05 -0.483049
10.06 -0.460364
10.07 -0.437853
10.08 -0.415841
10.09 -0.394766
10.1 -0.374796
10.11 -0.356091
10.12 -0.33891
10.13 -0.323016
10.14 -0.30846
10.15 -0.294958
10.16 -0.282161
10.17 -0.269743
10.18 -0.257194
10.19 -0.243979
10.2 -0.22953
10.21 -0.213466
10.22 -0.194843
10.23 -0.173582
10.24 -0.149101
10.25 -0.120862
10.26 -0.0890998
10.27 -0.0530704
10.28 -0.0132642
10.29 0.0302076
10.3 0.0774363
10.31 0.127498
10.32 0.180236
10.33 0.23483
10.34 0.290526
10.35 0.3466
10.36 0.402193
10.37 0.456376
10.38 0.508301
10.39 0.557446
10.4 0.602348
10.41 0.643091
10.42 0.678786
10.43 0.70878
10.44 0.733438
10.45 0.751583
10.46 0.764004
10.47 0.770654
10.48 0.771252
10.49 0.766942
10.5 0.757444
10.51 0.743699
10.52 0.726379
10.53 0.705654
10.54 0.682671
10.55 0.657804
10.56 0.631735
10.57 0.605076
10.58 0.578294
10.59 0.551827
10.6 0.526049
10.61 0.501248
10.62 0.477478
10.63 0.455034
10.64 0.433733
10.65 0.413556
10.66 0.394447
10.67 0.376105
10.68 0.358428
10.69 0.341129
10.7 0.323993
10.71 0.306807
10.72 0.289406
10.73 0.271613
10.74 0.253351
10.75 0.234614
10.76 0.215337
10.77 0.195689
10.78 0.175771
10.79 0.155783
10.8 0.135946
10.81 0.116609
10.82 0.0979865
10.83 0.0804305
10.84 0.0643418
10.85 0.0498265
10.86 0.0374764
10.87 0.0273065
10.88 0.0195317
10.89 0.0146061
10.9 0.0122255
10.91 0.012817
10.92 0.0161909
10.93 0.0221568
10.94 0.0310262
10.95 0.0421597
10.96 0.0556008
10.97 0.0710564
10.98 0.0880812
10.99 0.106642
11 0.126159
11.01 0.146374
11.02 0.166947
11.03 0.18752
11.04 0.207711
11.05 0.227245
11.06 0.245802
11.07 0.262961
11.08 0.278645
11.09 0.292334
11.1 0.30393
11.11 0.313275
11.12 0.319775
11.13 0.323685
11.14 0.324482
11.15 0.322083
11.16 0.316617
11.17 0.307275
11.18 0.29465
11.19 0.278353
11.2 0.258261
11.21 0.234785
11.22 0.207325
11.23 0.176522
11.24 0.142377
11.25 0.104843
11.26 0.0645905
11.27 0.0215059
11.28 -0.0237978
11.29 -0.070913
11.3 -0.119589
11.31 -0.16914
11.32 -0.219158
11.33 -0.269097
11.34 -0.31849
11.35 -0.366638
11.36 -0.413287
11.37 -0.457821
11.38 -0.499802
11.39 -0.539163
11.4 -0.575048
11.41 -0.607776
11.42 -0.637027
11.43 -0.66253
11.44 -0.684764
11.45 -0.703267
11.46 -0.718601
11.47 -0.730967
11.48 -0.740321
11.49 -0.74739
11.5 -0.752194
11.51 -0.755211
11.52 -0.756834
11.53 -0.757174
11.54 -0.756705
11.55 -0.755562
11.56 -0.753928
11.57 -0.751946
11.58 -0.74959
11.59 -0.746893
11.6 -0.743733
11.61 -0.739923
11.62 -0.735348
11.63 -0.729586
11.64 -0.722504
11.65 -0.713795
11.66 -0.702977
11.67 -0.690083
11.68 -0.674533
11.69 -0.656329
11.7 -0.635433
11.71 -0.611347
11.72 -0.584589
11.73 -0.554922
11.74 -0.522601
11.75 -0.48808
11.76 -0.451265
11.77 -0.412948
11.78 -0.373424
11.79 -0.333173
11.8 -0.292738
11.81 -0.252661
11.82 -0.213382
11.83 -0.175377
11.84 -0.139203
11.85 -0.104952
11.86 -0.073242
11.87 -0.0440416
11.88 -0.0174113
11.89 0.00627489
11.9 0.0275313
11.91 0.0461964
11.92 0.0626107
11.93 0.0771929
11.94 0.0899716
11.95 0.101612
11.96 0.112372
11.97 0.122633
11.98 0.132763
11.99 0.143083
12 0.153806
12.01 0.165119
12.02 0.177161
12.03 0.189847
12.04 0.203191
12.05 0.216954
12.06 0.230891
12.07 0.244656
12.08 0.257908
12.09 0.270108
12.1 0.280848
12.11 0.289771
12.12 0.296026
12.13 0.299645
12.14 0.299948
12.15 0.296642
12.16 0.28986
12.17 0.278725
12.18 0.263926
12.19 0.245269
12.2 0.222779
12.21 0.197172
12.22 0.168319
12.23 0.13707
12.24 0.103897
12.25 0.0692553
12.26 0.0339324
12.27 -0.00149177
12.28 -0.0363788
12.29 -0.07019
12.3 -0.102123
12.31 -0.132004
12.32 -0.159152
12.33 -0.183285
12.34 -0.204442
12.35 -0.221793
12.36 -0.235957
12.37 -0.246665
12.38 -0.253933
12.39 -0.258299
12.4 -0.259476
12.41 -0.258157
12.42 -0.254541
12.43 -0.248771
12.44 -0.241415
12.45 -0.232525
12.46 -0.222487
12.47 -0.211525
12.48 -0.199696
12.49 -0.187247
12.5 -0.174168
12.51 -0.16051
12.52 -0.146304
12.53 -0.131392
12.54 -0.115841
12.55 -0.0995207
12.56 -0.0823653
12.57 -0.0644307
12.58 -0.0455665
12.59 -0.0259591
12.6 -0.00567294
12.61 0.0151541
12.62 0.0362375
12.63 0.0572866
12.64 0.0779439
12.65 0.0978143
12.66 0.116287
12.67 0.133101
12.68 0.147485
12.69 0.159063
12.7 0.16755
12.71 0.171884
12.72 0.172403
12.73 0.168384
12.74 0.159648
12.75 0.146569
12.76 0.128283
12.77 0.105791
12.78 0.0790688
12.79 0.0483478
12.8 0.0145772
12.81 -0.0220979
12.82 -0.0606459
12.83 -0.100367
12.84 -0.140502
12.85 -0.180225
12.86 -0.218612
12.87 -0.254981
12.88 -0.288755
12.89 -0.318801
12.9 -0.345217
12.91 -0.367149
12.92 -0.384405
12.93 -0.397267
12.94 -0.404774
12.95 -0.407991
12.96 -0.406778
12.97 -0.401381
12.98 -0.392683
12.99 -0.380659
13 -0.366315
13.01 -0.350155
13.02 -0.332676
13.03 -0.314597
13.04 -0.296392
13.05 -0.278532
13.06 -0.261361
13.07 -0.245282
13.08 -0.230286
13.09 -0.216566
13.1 -0.204013
13.11 -0.192395
13.12 -0.181598
13.13 -0.171154
13.14 -0.160697
13.15 -0.149764
13.16 -0.137986
13.17 -0.124678
13.18 -0.109648
13.19 -0.0924514
13.2 -0.0726178
