# xPDFsuite Configuration #
[PDF]
wavelength = 0.1
dataformat = Qnm
inputfile = A3-Li-TiO2-12h-p2_007.chi
backgroundfile = A2_Bkg-Li_d22-00000.chi
mode = xray
bgscale = 0.91
composition = TiO2
outputtype = gr
qmaxinst = 21.4
qmin = 0.1
qmax = 21.4
rmax = 100.0
rmin = 0.0
rstep = 0.01
rpoly = 0.9

[Misc]
inputdir = D:/APS_March_2019/Run3/Processed-Data/A3-Li-TiO2-12h-p2/chi-files
savedir = D:/APS_March_2019/Run3/Processed-Data/A3-Li-TiO2-12h-p2
backgroundfilefull = D:/APS_March_2019/Calib-Bkg/A2_Bkg-Li_d22-00000.chi

#### start data
#S 1
#L r($\AA$)  G($\AA^{-2}$)
0 0
0.01 -0.00030675
0.02 -0.000600151
0.03 -0.000866008
0.04 -0.00109101
0.05 -0.00127025
0.06 -0.00138606
0.07 -0.00144176
0.08 -0.00143275
0.09 -0.00135423
0.1 -0.00121843
0.11 -0.00102286
0.12 -0.000781577
0.13 -0.000505731
0.14 -0.000205045
0.15 0.000103008
0.16 0.000403139
0.17 0.000679107
0.18 0.000917541
0.19 0.00109157
0.2 0.0011965
0.21 0.00120908
0.22 0.00111212
0.23 0.000903266
0.24 0.000543851
0.25 4.33902e-05
0.26 -0.000617797
0.27 -0.00146166
0.28 -0.00247391
0.29 -0.00369075
0.3 -0.00509438
0.31 -0.00668398
0.32 -0.00847497
0.33 -0.0104256
0.34 -0.0125353
0.35 -0.0147625
0.36 -0.0170604
0.37 -0.0193746
0.38 -0.0216316
0.39 -0.0237321
0.4 -0.0255639
0.41 -0.0270378
0.42 -0.0279088
0.43 -0.028117
0.44 -0.027438
0.45 -0.0256265
0.46 -0.0226308
0.47 -0.0180081
0.48 -0.0117512
0.49 -0.0036471
0.5 0.00668838
0.51 0.0190889
0.52 0.0339965
0.53 0.0513106
0.54 0.0709681
0.55 0.0933106
0.56 0.117817
0.57 0.144576
0.58 0.173285
0.59 0.203484
0.6 0.23502
0.61 0.267189
0.62 0.299501
0.63 0.331301
0.64 0.362026
0.65 0.390652
0.66 0.416725
0.67 0.439424
0.68 0.457652
0.69 0.471331
0.7 0.479004
0.71 0.480602
0.72 0.475784
0.73 0.463214
0.74 0.44385
0.75 0.416698
0.76 0.382124
0.77 0.340878
0.78 0.292085
0.79 0.237616
0.8 0.177636
0.81 0.113016
0.82 0.0451799
0.83 -0.0251893
0.84 -0.0965079
0.85 -0.167567
0.86 -0.236927
0.87 -0.303583
0.88 -0.365689
0.89 -0.422541
0.9 -0.473163
0.91 -0.515794
0.92 -0.550936
0.93 -0.577012
0.94 -0.594241
0.95 -0.603099
0.96 -0.602319
0.97 -0.593972
0.98 -0.57794
0.99 -0.555229
1 -0.527503
1.01 -0.495232
1.02 -0.460536
1.03 -0.424716
1.04 -0.389365
1.05 -0.355843
1.06 -0.326111
1.07 -0.30106
1.08 -0.281886
1.09 -0.270284
1.1 -0.265888
1.11 -0.270268
1.12 -0.282985
1.13 -0.30358
1.14 -0.332824
1.15 -0.368607
1.16 -0.410646
1.17 -0.457481
1.18 -0.507329
1.19 -0.558859
1.2 -0.610027
1.21 -0.658963
1.22 -0.70362
1.23 -0.742813
1.24 -0.77362
1.25 -0.795671
1.26 -0.807492
1.27 -0.80715
1.28 -0.795678
1.29 -0.771026
1.3 -0.734421
1.31 -0.686605
1.32 -0.626954
1.33 -0.558476
1.34 -0.48167
1.35 -0.398741
1.36 -0.312048
1.37 -0.223479
1.38 -0.135664
1.39 -0.0510882
1.4 0.0277007
1.41 0.0992288
1.42 0.159679
1.43 0.208863
1.44 0.244749
1.45 0.265167
1.46 0.271358
1.47 0.260569
1.48 0.234592
1.49 0.194037
1.5 0.138153
1.51 0.0705036
1.52 -0.00871373
1.53 -0.0968308
1.54 -0.19123
1.55 -0.290226
1.56 -0.39057
1.57 -0.489778
1.58 -0.585186
1.59 -0.674938
1.6 -0.755252
1.61 -0.825673
1.62 -0.883873
1.63 -0.927767
1.64 -0.958152
1.65 -0.971985
1.66 -0.970969
1.67 -0.95514
1.68 -0.923543
1.69 -0.879277
1.7 -0.821775
1.71 -0.753413
1.72 -0.6762
1.73 -0.590724
1.74 -0.500125
1.75 -0.405726
1.76 -0.309497
1.77 -0.213182
1.78 -0.11863
1.79 -0.0269011
1.8 0.0606004
1.81 0.142723
1.82 0.219422
1.83 0.289175
1.84 0.352662
1.85 0.409699
1.86 0.459911
1.87 0.504531
1.88 0.543164
1.89 0.576822
1.9 0.606145
1.91 0.631091
1.92 0.652797
1.93 0.671244
1.94 0.686821
1.95 0.69988
1.96 0.709881
1.97 0.71721
1.98 0.721294
1.99 0.721624
2 0.718115
2.01 0.70932
2.02 0.695368
2.03 0.6754
2.04 0.648345
2.05 0.614641
2.06 0.57277
2.07 0.523323
2.08 0.466358
2.09 0.40115
2.1 0.329357
2.11 0.250816
2.12 0.166817
2.13 0.0787644
2.14 -0.0125106
2.15 -0.104973
2.16 -0.197052
2.17 -0.286909
2.18 -0.37313
2.19 -0.452924
2.2 -0.525657
2.21 -0.589368
2.22 -0.642124
2.23 -0.684224
2.24 -0.712887
2.25 -0.729124
2.26 -0.732683
2.27 -0.722384
2.28 -0.700719
2.29 -0.666979
2.3 -0.62317
2.31 -0.571129
2.32 -0.511452
2.33 -0.44723
2.34 -0.380035
2.35 -0.312108
2.36 -0.245439
2.37 -0.182717
2.38 -0.125149
2.39 -0.0748813
2.4 -0.0337912
2.41 -0.00197629
2.42 0.0178224
2.43 0.0265595
2.44 0.0237418
2.45 0.00845739
2.46 -0.0171501
2.47 -0.0538073
2.48 -0.0995218
2.49 -0.152768
2.5 -0.212903
2.51 -0.277208
2.52 -0.344322
2.53 -0.41225
2.54 -0.479255
2.55 -0.543057
2.56 -0.602621
2.57 -0.656054
2.58 -0.701876
2.59 -0.739921
2.6 -0.767759
2.61 -0.786289
2.62 -0.794828
2.63 -0.792604
2.64 -0.7812
2.65 -0.759574
2.66 -0.729319
2.67 -0.691272
2.68 -0.645421
2.69 -0.59388
2.7 -0.53697
2.71 -0.47602
2.72 -0.412242
2.73 -0.34625
2.74 -0.279316
2.75 -0.212181
2.76 -0.145622
2.77 -0.0801659
2.78 -0.0166547
2.79 0.044788
2.8 0.1037
2.81 0.159653
2.82 0.212816
2.83 0.262527
2.84 0.309034
2.85 0.3522
2.86 0.391508
2.87 0.427374
2.88 0.459109
2.89 0.486761
2.9 0.510299
2.91 0.528698
2.92 0.54251
2.93 0.550873
2.94 0.55352
2.95 0.5507
2.96 0.540928
2.97 0.525155
2.98 0.50274
2.99 0.473341
3 0.437781
3.01 0.395085
3.02 0.346388
3.03 0.291914
3.04 0.231659
3.05 0.166993
3.06 0.0980131
3.07 0.0258717
3.08 -0.0485048
3.09 -0.124391
3.1 -0.200621
3.11 -0.276224
3.12 -0.350228
3.13 -0.421933
3.14 -0.48983
3.15 -0.553843
3.16 -0.612919
3.17 -0.666337
3.18 -0.714279
3.19 -0.755295
3.2 -0.790112
3.21 -0.818353
3.22 -0.839473
3.23 -0.85444
3.24 -0.862368
3.25 -0.864064
3.26 -0.859787
3.27 -0.848947
3.28 -0.83271
3.29 -0.810508
3.3 -0.782729
3.31 -0.749821
3.32 -0.71082
3.33 -0.666764
3.34 -0.617065
3.35 -0.561611
3.36 -0.500909
3.37 -0.433812
3.38 -0.361253
3.39 -0.282917
3.4 -0.198551
3.41 -0.109064
3.42 -0.0139101
3.43 0.0858675
3.44 0.189723
3.45 0.297302
3.46 0.407212
3.47 0.518656
3.48 0.630324
3.49 0.74098
3.5 0.848802
3.51 0.952819
3.52 1.05102
3.53 1.14187
3.54 1.22471
3.55 1.2962
3.56 1.35698
3.57 1.40514
3.58 1.43917
3.59 1.46008
3.6 1.46503
3.61 1.45582
3.62 1.4323
3.63 1.39356
3.64 1.34236
3.65 1.27784
3.66 1.20223
3.67 1.11721
3.68 1.02311
3.69 0.922988
3.7 0.817935
3.71 0.709923
3.72 0.6008
3.73 0.492323
3.74 0.385904
3.75 0.283132
3.76 0.185393
3.77 0.0930686
3.78 0.00806828
3.79 -0.0700906
3.8 -0.14088
3.81 -0.203666
3.82 -0.259661
3.83 -0.308176
3.84 -0.350425
3.85 -0.387142
3.86 -0.418417
3.87 -0.445847
3.88 -0.469768
3.89 -0.491122
3.9 -0.510738
3.91 -0.528977
3.92 -0.546542
3.93 -0.56369
3.94 -0.580599
3.95 -0.597311
3.96 -0.613618
3.97 -0.629297
3.98 -0.643906
3.99 -0.656826
4 -0.667725
4.01 -0.675571
4.02 -0.680073
4.03 -0.680685
4.04 -0.676386
4.05 -0.66752
4.06 -0.653164
4.07 -0.633539
4.08 -0.608991
4.09 -0.578949
4.1 -0.544755
4.11 -0.506579
4.12 -0.46527
4.13 -0.421965
4.14 -0.377456
4.15 -0.333025
4.16 -0.289803
4.17 -0.249063
4.18 -0.211526
4.19 -0.178891
4.2 -0.151429
4.21 -0.129901
4.22 -0.115457
4.23 -0.107378
4.24 -0.106673
4.25 -0.112599
4.26 -0.124505
4.27 -0.142569
4.28 -0.164955
4.29 -0.191079
4.3 -0.219583
4.31 -0.249053
4.32 -0.278034
4.33 -0.305224
4.34 -0.329075
4.35 -0.348087
4.36 -0.361679
4.37 -0.367638
4.38 -0.366157
4.39 -0.356378
4.4 -0.337218
4.41 -0.309815
4.42 -0.273029
4.43 -0.228115
4.44 -0.175869
4.45 -0.116287
4.46 -0.0515476
4.47 0.0176932
4.48 0.0898245
4.49 0.163291
4.5 0.236585
4.51 0.308277
4.52 0.376745
4.53 0.440523
4.54 0.498965
4.55 0.549784
4.56 0.593255
4.57 0.628344
4.58 0.654032
4.59 0.671295
4.6 0.67872
4.61 0.677548
4.62 0.668203
4.63 0.65037
4.64 0.626009
4.65 0.595132
4.66 0.559083
4.67 0.51909
4.68 0.475647
4.69 0.43033
4.7 0.383944
4.71 0.337466
4.72 0.291684
4.73 0.24761
4.74 0.205581
4.75 0.166237
4.76 0.130108
4.77 0.0970476
4.78 0.0677496
4.79 0.0417885
4.8 0.019134
4.81 -5.92247e-05
4.82 -0.0165018
4.83 -0.0300975
4.84 -0.0413837
4.85 -0.0507819
4.86 -0.0584041
4.87 -0.0648853
4.88 -0.0704481
4.89 -0.0754559
4.9 -0.0802369
4.91 -0.0850729
4.92 -0.0902004
4.93 -0.0958679
4.94 -0.102306
4.95 -0.109596
4.96 -0.118082
4.97 -0.127753
4.98 -0.13878
4.99 -0.151417
5 -0.165561
5.01 -0.181571
5.02 -0.199382
5.03 -0.219029
5.04 -0.240837
5.05 -0.264499
5.06 -0.290244
5.07 -0.317935
5.08 -0.347326
5.09 -0.37856
5.1 -0.411076
5.11 -0.444684
5.12 -0.478977
5.13 -0.513449
5.14 -0.547493
5.15 -0.580559
5.16 -0.611921
5.17 -0.640663
5.18 -0.66639
5.19 -0.68771
5.2 -0.704272
5.21 -0.715365
5.22 -0.719492
5.23 -0.717054
5.24 -0.706525
5.25 -0.687864
5.26 -0.661233
5.27 -0.624948
5.28 -0.580606
5.29 -0.527457
5.3 -0.465849
5.31 -0.397038
5.32 -0.320293
5.33 -0.237671
5.34 -0.149697
5.35 -0.057251
5.36 0.038048
5.37 0.135311
5.38 0.233029
5.39 0.329956
5.4 0.424575
5.41 0.516028
5.42 0.602573
5.43 0.683452
5.44 0.758003
5.45 0.824247
5.46 0.882891
5.47 0.93252
5.48 0.972978
5.49 1.00496
5.5 1.02667
5.51 1.0401
5.52 1.04488
5.53 1.04125
5.54 1.03074
5.55 1.01287
5.56 0.989372
5.57 0.960906
5.58 0.927986
5.59 0.892034
5.6 0.853502
5.61 0.813424
5.62 0.772551
5.63 0.731535
5.64 0.690971
5.65 0.651436
5.66 0.613307
5.67 0.576753
5.68 0.542336
5.69 0.509789
5.7 0.479321
5.71 0.450911
5.72 0.424241
5.73 0.399462
5.74 0.376107
5.75 0.354028
5.76 0.333066
5.77 0.312869
5.78 0.293335
5.79 0.274215
5.8 0.255365
5.81 0.236695
5.82 0.218112
5.83 0.199604
5.84 0.181182
5.85 0.162891
5.86 0.144858
5.87 0.12715
5.88 0.109938
5.89 0.0933718
5.9 0.0775208
5.91 0.0626904
5.92 0.0488367
5.93 0.0361166
5.94 0.0246576
5.95 0.0143319
5.96 0.00531938
5.97 -0.0025896
5.98 -0.00948709
5.99 -0.0154311
6 -0.0207392
6.01 -0.0255658
6.02 -0.0302072
6.03 -0.0349359
6.04 -0.0401107
6.05 -0.0459523
6.06 -0.0528492
6.07 -0.0610815
6.08 -0.0707665
6.09 -0.0824836
6.1 -0.096064
6.11 -0.111797
6.12 -0.12984
6.13 -0.149947
6.14 -0.17244
6.15 -0.196899
6.16 -0.223199
6.17 -0.251232
6.18 -0.280475
6.19 -0.310724
6.2 -0.341486
6.21 -0.372333
6.22 -0.402749
6.23 -0.432343
6.24 -0.460511
6.25 -0.48682
6.26 -0.511019
6.27 -0.532194
6.28 -0.550542
6.29 -0.565502
6.3 -0.576784
6.31 -0.584655
6.32 -0.588402
6.33 -0.588649
6.34 -0.585371
6.35 -0.578551
6.36 -0.568931
6.37 -0.556471
6.38 -0.541899
6.39 -0.525721
6.4 -0.508351
6.41 -0.490523
6.42 -0.472808
6.43 -0.455805
6.44 -0.439995
6.45 -0.426224
6.46 -0.414609
6.47 -0.405791
6.48 -0.400116
6.49 -0.397483
6.5 -0.398657
6.51 -0.403058
6.52 -0.410793
6.53 -0.421822
6.54 -0.435452
6.55 -0.451668
6.56 -0.469681
6.57 -0.488944
6.58 -0.508882
6.59 -0.528748
6.6 -0.54777
6.61 -0.565278
6.62 -0.5807
6.63 -0.592924
6.64 -0.601897
6.65 -0.606705
6.66 -0.606958
6.67 -0.602774
6.68 -0.592958
6.69 -0.578376
6.7 -0.55867
6.71 -0.533806
6.72 -0.504622
6.73 -0.470754
6.74 -0.433258
6.75 -0.392584
6.76 -0.349121
6.77 -0.303881
6.78 -0.257346
6.79 -0.210328
6.8 -0.16349
6.81 -0.117605
6.82 -0.0731061
6.83 -0.0307276
6.84 0.009119
6.85 0.0463015
6.86 0.0799285
6.87 0.110461
6.88 0.137524
6.89 0.161065
6.9 0.181563
6.91 0.198649
6.92 0.213052
6.93 0.224963
6.94 0.234574
6.95 0.242534
6.96 0.24899
6.97 0.254458
6.98 0.259283
6.99 0.263738
7 0.268141
7.01 0.27272
7.02 0.277639
7.03 0.282981
7.04 0.288895
7.05 0.295291
7.06 0.302181
7.07 0.309492
7.08 0.317095
7.09 0.324922
7.1 0.332832
7.11 0.340734
7.12 0.348547
7.13 0.356243
7.14 0.363801
7.15 0.371284
7.16 0.378784
7.17 0.386471
7.18 0.394504
7.19 0.403192
7.2 0.412778
7.21 0.423493
7.22 0.435895
7.23 0.450001
7.24 0.466304
7.25 0.485043
7.26 0.506176
7.27 0.530367
7.28 0.557158
7.29 0.586719
7.3 0.619018
7.31 0.65352
7.32 0.690238
7.33 0.728456
7.34 0.767683
7.35 0.807319
7.36 0.846645
7.37 0.884784
7.38 0.92102
7.39 0.954651
7.4 0.984347
7.41 1.00998
7.42 1.03029
7.43 1.04474
7.44 1.0533
7.45 1.05417
7.46 1.04841
7.47 1.03518
7.48 1.01426
7.49 0.98656
7.5 0.951073
7.51 0.909243
7.52 0.861315
7.53 0.807496
7.54 0.749234
7.55 0.686691
7.56 0.621123
7.57 0.553423
7.58 0.484325
7.59 0.414896
7.6 0.345998
7.61 0.278437
7.62 0.212795
7.63 0.15021
7.64 0.0906886
7.65 0.0349974
7.66 -0.0164853
7.67 -0.0639807
7.68 -0.106559
7.69 -0.144955
7.7 -0.17901
7.71 -0.208638
7.72 -0.234603
7.73 -0.256591
7.74 -0.275345
7.75 -0.291186
7.76 -0.304158
7.77 -0.315
7.78 -0.323742
7.79 -0.330796
7.8 -0.336475
7.81 -0.340762
7.82 -0.344032
7.83 -0.346265
7.84 -0.347525
7.85 -0.347913
7.86 -0.347216
7.87 -0.345563
7.88 -0.342811
7.89 -0.338831
7.9 -0.333701
7.91 -0.327147
7.92 -0.319308
7.93 -0.310159
7.94 -0.299614
7.95 -0.287942
7.96 -0.275114
7.97 -0.261394
7.98 -0.247021
7.99 -0.232196
8 -0.21728
8.01 -0.202606
8.02 -0.188527
8.03 -0.175318
8.04 -0.163592
8.05 -0.153418
8.06 -0.145259
8.07 -0.139471
8.08 -0.136014
8.09 -0.135545
8.1 -0.137782
8.11 -0.14288
8.12 -0.151062
8.13 -0.161844
8.14 -0.175482
8.15 -0.191503
8.16 -0.209599
8.17 -0.229682
8.18 -0.251084
8.19 -0.273538
8.2 -0.296543
8.21 -0.319635
8.22 -0.342281
8.23 -0.364108
8.24 -0.384578
8.25 -0.403232
8.26 -0.419897
8.27 -0.433774
8.28 -0.444986
8.29 -0.453147
8.3 -0.457861
8.31 -0.45944
8.32 -0.457274
8.33 -0.451747
8.34 -0.442913
8.35 -0.430496
8.36 -0.41517
8.37 -0.396744
8.38 -0.375641
8.39 -0.352267
8.4 -0.326568
8.41 -0.299248
8.42 -0.270472
8.43 -0.24061
8.44 -0.210082
8.45 -0.179146
8.46 -0.148186
8.47 -0.1175
8.48 -0.087403
8.49 -0.0580596
8.5 -0.0298505
8.51 -0.00282159
8.52 0.022871
8.53 0.0469781
8.54 0.069663
8.55 0.0906899
8.56 0.110198
8.57 0.128298
8.58 0.144869
8.59 0.160274
8.6 0.174527
8.61 0.187829
8.62 0.200432
8.63 0.21241
8.64 0.224065
8.65 0.235554
8.66 0.247058
8.67 0.258723
8.68 0.270728
8.69 0.283127
8.7 0.295994
8.71 0.309395
8.72 0.323243
8.73 0.337539
8.74 0.352139
8.75 0.366898
8.76 0.38163
8.77 0.396132
8.78 0.410115
8.79 0.42333
8.8 0.435582
8.81 0.446354
8.82 0.455645
8.83 0.463055
8.84 0.46833
8.85 0.471523
8.86 0.472066
8.87 0.470267
8.88 0.465981
8.89 0.459084
8.9 0.449996
8.91 0.438531
8.92 0.425151
8.93 0.41013
8.94 0.39363
8.95 0.376215
8.96 0.358173
8.97 0.339957
8.98 0.321954
8.99 0.30467
9 0.28835
9.01 0.273445
9.02 0.260258
9.03 0.248836
9.04 0.239738
9.05 0.232679
9.06 0.227812
9.07 0.225171
9.08 0.224356
9.09 0.225441
9.1 0.227914
9.11 0.231458
9.12 0.235741
9.13 0.240249
9.14 0.244523
9.15 0.24811
9.16 0.250615
9.17 0.25137
9.18 0.250282
9.19 0.246781
9.2 0.24063
9.21 0.231878
9.22 0.219815
9.23 0.204978
9.24 0.187161
9.25 0.166395
9.26 0.143188
9.27 0.117382
9.28 0.089631
9.29 0.060226
9.3 0.0294559
9.31 -0.00210936
9.32 -0.0341458
9.33 -0.0662118
9.34 -0.0979564
9.35 -0.128958
9.36 -0.159061
9.37 -0.187922
9.38 -0.215426
9.39 -0.241596
9.4 -0.26614
9.41 -0.289394
9.42 -0.311342
9.43 -0.332144
9.44 -0.352114
9.45 -0.37137
9.46 -0.390276
9.47 -0.409075
9.48 -0.428037
9.49 -0.447361
9.5 -0.46732
9.51 -0.487995
9.52 -0.509459
9.53 -0.531827
9.54 -0.55491
9.55 -0.57866
9.56 -0.602825
9.57 -0.627122
9.58 -0.651168
9.59 -0.674615
9.6 -0.696934
9.61 -0.717622
9.62 -0.736382
9.63 -0.75223
9.64 -0.765152
9.65 -0.774502
9.66 -0.779654
9.67 -0.780782
9.68 -0.77686
9.69 -0.768268
9.7 -0.75485
9.71 -0.73607
9.72 -0.712764
9.73 -0.684452
9.74 -0.651741
9.75 -0.615151
9.76 -0.574529
9.77 -0.531012
9.78 -0.484823
9.79 -0.436628
9.8 -0.387173
9.81 -0.336936
9.82 -0.286673
9.83 -0.236996
9.84 -0.188556
9.85 -0.141732
9.86 -0.0973997
9.87 -0.0556875
9.88 -0.0170471
9.89 0.0178901
9.9 0.0493814
9.91 0.0766812
9.92 0.100013
9.93 0.11943
9.94 0.134361
9.95 0.145567
9.96 0.152689
9.97 0.15603
9.98 0.156066
9.99 0.152382
10 0.145888
10.01 0.136588
10.02 0.124752
10.03 0.110942
10.04 0.0951482
10.05 0.077985
10.06 0.0597199
10.07 0.040646
10.08 0.0211882
10.09 0.00165856
10.1 -0.0175996
10.11 -0.0362765
10.12 -0.053939
10.13 -0.0704466
10.14 -0.0853335
10.15 -0.0984042
10.16 -0.109546
10.17 -0.118144
10.18 -0.124455
10.19 -0.128088
10.2 -0.128938
10.21 -0.127231
10.22 -0.122448
10.23 -0.115124
10.24 -0.105205
10.25 -0.0927293
10.26 -0.07821
10.27 -0.0615939
10.28 -0.0434331
10.29 -0.0240602
10.3 -0.00377949
10.31 0.0168818
10.32 0.0375123
10.33 0.0576675
10.34 0.0769669
10.35 0.0947887
10.36 0.111004
10.37 0.125072
10.38 0.136722
10.39 0.145961
10.4 0.152085
10.41 0.155535
10.42 0.15608
10.43 0.153682
10.44 0.148809
10.45 0.141254
10.46 0.131642
10.47 0.120259
10.48 0.107388
10.49 0.0936517
10.5 0.0794342
10.51 0.0652723
10.52 0.0516317
10.53 0.0391453
10.54 0.028078
10.55 0.0190571
10.56 0.0124147
10.57 0.00825839
10.58 0.00742652
10.59 0.00952025
10.6 0.0149469
10.61 0.0238242
10.62 0.0357604
10.63 0.0512359
10.64 0.0695923
10.65 0.0907381
10.66 0.114583
10.67 0.140481
10.68 0.168388
10.69 0.197742
10.7 0.228165
10.71 0.259366
10.72 0.290872
10.73 0.322347
10.74 0.353453
10.75 0.383937
10.76 0.41337
10.77 0.44171
10.78 0.468654
10.79 0.494044
10.8 0.517934
10.81 0.539941
10.82 0.560318
10.83 0.578957
10.84 0.595773
10.85 0.611019
10.86 0.624471
10.87 0.636377
10.88 0.646776
10.89 0.655555
10.9 0.662987
10.91 0.668909
10.92 0.673436
10.93 0.67664
10.94 0.678283
10.95 0.678601
10.96 0.677402
10.97 0.674656
10.98 0.670458
10.99 0.664426
11 0.656806
11.01 0.647407
11.02 0.636092
11.03 0.62303
11.04 0.607845
11.05 0.590764
11.06 0.57172
11.07 0.550511
11.08 0.527439
11.09 0.502234
11.1 0.475095
11.11 0.446131
11.12 0.415132
11.13 0.382496
11.14 0.348113
11.15 0.312141
11.16 0.274819
11.17 0.236007
11.18 0.196108
11.19 0.155164
11.2 0.113321
11.21 0.070831
11.22 0.027774
11.23 -0.0155882
11.24 -0.0590797
11.25 -0.102492
11.26 -0.145641
11.27 -0.188251
11.28 -0.230156
11.29 -0.271163
11.3 -0.310907
11.31 -0.349377
11.32 -0.386185
11.33 -0.4212
11.34 -0.454374
11.35 -0.485147
11.36 -0.513785
11.37 -0.539929
11.38 -0.56345
11.39 -0.584537
11.4 -0.602638
11.41 -0.618183
11.42 -0.631025
11.43 -0.641037
11.44 -0.648623
11.45 -0.653457
11.46 -0.655944
11.47 -0.656196
11.48 -0.654112
11.49 -0.650177
11.5 -0.644295
11.51 -0.636747
11.52 -0.627765
11.53 -0.617274
11.54 -0.605662
11.55 -0.592928
11.56 -0.579202
11.57 -0.564664
11.58 -0.549233
11.59 -0.533114
11.6 -0.516296
11.61 -0.498779
11.62 -0.480662
11.63 -0.461844
11.64 -0.442419
11.65 -0.422382
11.66 -0.401689
11.67 -0.380456
11.68 -0.358645
11.69 -0.33636
11.7 -0.313696
11.71 -0.290715
11.72 -0.267596
11.73 -0.244486
11.74 -0.221573
11.75 -0.199025
11.76 -0.177182
11.77 -0.156147
11.78 -0.136235
11.79 -0.11773
11.8 -0.100695
11.81 -0.0856621
11.82 -0.0725541
11.83 -0.0616087
11.84 -0.0531459
11.85 -0.0469284
11.86 -0.0433732
11.87 -0.0422401
11.88 -0.0434402
11.89 -0.0471798
11.9 -0.0529281
11.91 -0.0607445
11.92 -0.070296
11.93 -0.0812098
11.94 -0.0933971
11.95 -0.10632
11.96 -0.119712
11.97 -0.133214
11.98 -0.146501
11.99 -0.159155
12 -0.17097
12.01 -0.181636
12.02 -0.190823
12.03 -0.198536
12.04 -0.204361
12.05 -0.208402
12.06 -0.210616
12.07 -0.210794
12.08 -0.209286
12.09 -0.205961
12.1 -0.201069
12.11 -0.194857
12.12 -0.18733
12.13 -0.178926
12.14 -0.169792
12.15 -0.160193
12.16 -0.150396
12.17 -0.140637
12.18 -0.131126
12.19 -0.122077
12.2 -0.113694
12.21 -0.106032
12.22 -0.0993377
12.23 -0.0935661
12.24 -0.0887638
12.25 -0.085023
12.26 -0.0821576
12.27 -0.0802175
12.28 -0.0790264
12.29 -0.0784295
12.3 -0.0783362
12.31 -0.0784899
12.32 -0.0787128
12.33 -0.0787819
12.34 -0.0785093
12.35 -0.0775507
12.36 -0.075806
12.37 -0.0729791
12.38 -0.0688081
12.39 -0.0632496
12.4 -0.0558205
12.41 -0.0465985
12.42 -0.0353716
12.43 -0.0218324
12.44 -0.00619184
12.45 0.0119642
12.46 0.0324497
12.47 0.0552166
12.48 0.0805362
12.49 0.107934
12.5 0.137546
12.51 0.169102
12.52 0.202254
12.53 0.237004
12.54 0.272762
12.55 0.309263
12.56 0.346085
12.57 0.382786
12.58 0.418791
12.59 0.453707
12.6 0.48697
12.61 0.517899
12.62 0.546296
12.63 0.571164
12.64 0.592379
12.65 0.609522
12.66 0.621646
12.67 0.629162
12.68 0.631125
12.69 0.627639
12.7 0.618899
12.71 0.603921
12.72 0.583814
12.73 0.558164
12.74 0.52726
12.75 0.491912
12.76 0.451684
12.77 0.407845
12.78 0.360679
12.79 0.310668
12.8 0.258734
12.81 0.205262
12.82 0.151079
12.83 0.0967824
12.84 0.043031
12.85 -0.00972109
12.86 -0.0607843
12.87 -0.10984
12.88 -0.156638
12.89 -0.200504
12.9 -0.24174
12.91 -0.279936
12.92 -0.315156
12.93 -0.347736
12.94 -0.377289
12.95 -0.404563
12.96 -0.429623
12.97 -0.452732
12.98 -0.474418
12.99 -0.4948
13 -0.514381
13.01 -0.533432
13.02 -0.552206
13.03 -0.57095
13.04 -0.589833
13.05 -0.608935
13.06 -0.628271
13.07 -0.647809
13.08 -0.667395
13.09 -0.686818
13.1 -0.705809
13.11 -0.72411
13.12 -0.741144
13.13 -0.756749
13.14 -0.770359
