# xPDFsuite Configuration #
[PDF]
wavelength = 0.1
dataformat = Qnm
inputfile = A3-Li-TiO2-12h-p2_012.chi
backgroundfile = A2_Bkg-Li_d22-00000.chi
mode = xray
bgscale = 0.91
composition = TiO2
outputtype = gr
qmaxinst = 21.4
qmin = 0.1
qmax = 21.4
rmax = 100.0
rmin = 0.0
rstep = 0.01
rpoly = 0.9

[Misc]
inputdir = D:/APS_March_2019/Run3/Processed-Data/A3-Li-TiO2-12h-p2/chi-files
savedir = D:/APS_March_2019/Run3/Processed-Data/A3-Li-TiO2-12h-p2
backgroundfilefull = D:/APS_March_2019/Calib-Bkg/A2_Bkg-Li_d22-00000.chi

#### start data
#S 1
#L r($\AA$)  G($\AA^{-2}$)
0 0
0.01 -0.000216928
0.02 -0.000424418
0.03 -0.000612436
0.04 -0.000771568
0.05 -0.000898348
0.06 -0.000980268
0.07 -0.00101967
0.08 -0.00101329
0.09 -0.000957689
0.1 -0.000861509
0.11 -0.000722972
0.12 -0.000552059
0.13 -0.000356752
0.14 -0.000144184
0.15 7.29567e-05
0.16 0.000283077
0.17 0.000473745
0.18 0.00063441
0.19 0.000743153
0.2 0.000795378
0.21 0.000770692
0.22 0.000652892
0.23 0.000437899
0.24 8.9021e-05
0.25 -0.000388214
0.26 -0.0010148
0.27 -0.00181457
0.28 -0.00277672
0.29 -0.00393899
0.3 -0.00528587
0.31 -0.00681754
0.32 -0.00854925
0.33 -0.0104383
0.34 -0.0124807
0.35 -0.0146307
0.36 -0.0168368
0.37 -0.0190329
0.38 -0.0211416
0.39 -0.0230499
0.4 -0.0246352
0.41 -0.0258039
0.42 -0.0262875
0.43 -0.0260314
0.44 -0.0247998
0.45 -0.0223402
0.46 -0.0186132
0.47 -0.0131675
0.48 -0.00601815
0.49 0.00303242
0.5 0.0143477
0.51 0.0277283
0.52 0.0435764
0.53 0.0617512
0.54 0.0821479
0.55 0.105029
0.56 0.129851
0.57 0.15662
0.58 0.18498
0.59 0.214454
0.6 0.24475
0.61 0.275217
0.62 0.305288
0.63 0.334275
0.64 0.36167
0.65 0.386366
0.66 0.408015
0.67 0.425824
0.68 0.438728
0.69 0.446784
0.7 0.448599
0.71 0.444243
0.72 0.433501
0.73 0.415204
0.74 0.390421
0.75 0.358365
0.76 0.319541
0.77 0.274787
0.78 0.223544
0.79 0.167619
0.8 0.107383
0.81 0.0438098
0.82 -0.0217644
0.83 -0.0883901
0.84 -0.154715
0.85 -0.219511
0.86 -0.281347
0.87 -0.339488
0.88 -0.392091
0.89 -0.438737
0.9 -0.478652
0.91 -0.510274
0.92 -0.534384
0.93 -0.549675
0.94 -0.556617
0.95 -0.555887
0.96 -0.546621
0.97 -0.530913
0.98 -0.508959
0.99 -0.481913
1 -0.451387
1.01 -0.41824
1.02 -0.384292
1.03 -0.35092
1.04 -0.319703
1.05 -0.29167
1.06 -0.268812
1.07 -0.251632
1.08 -0.241086
1.09 -0.238625
1.1 -0.243516
1.11 -0.257005
1.12 -0.278341
1.13 -0.306797
1.14 -0.342691
1.15 -0.383861
1.16 -0.429649
1.17 -0.478454
1.18 -0.528546
1.19 -0.578154
1.2 -0.625621
1.21 -0.668987
1.22 -0.706285
1.23 -0.736705
1.24 -0.757335
1.25 -0.768275
1.26 -0.768335
1.27 -0.755914
1.28 -0.732434
1.29 -0.69626
1.3 -0.648946
1.31 -0.591538
1.32 -0.523922
1.33 -0.449112
1.34 -0.368041
1.35 -0.282999
1.36 -0.196265
1.37 -0.110173
1.38 -0.026859
1.39 0.0511112
1.4 0.12136
1.41 0.182848
1.42 0.231817
1.43 0.268632
1.44 0.291594
1.45 0.298931
1.46 0.292291
1.47 0.269409
1.48 0.232388
1.49 0.182163
1.5 0.118494
1.51 0.0449027
1.52 -0.0379711
1.53 -0.127469
1.54 -0.221082
1.55 -0.316787
1.56 -0.411884
1.57 -0.503895
1.58 -0.590455
1.59 -0.670186
1.6 -0.739538
1.61 -0.798643
1.62 -0.845615
1.63 -0.878902
1.64 -0.899684
1.65 -0.905626
1.66 -0.898678
1.67 -0.879278
1.68 -0.847102
1.69 -0.805083
1.7 -0.753275
1.71 -0.693929
1.72 -0.628924
1.73 -0.559285
1.74 -0.487395
1.75 -0.414646
1.76 -0.342593
1.77 -0.272367
1.78 -0.20565
1.79 -0.142669
1.8 -0.0843273
1.81 -0.0311401
1.82 0.0173947
1.83 0.0605974
1.84 0.0995225
1.85 0.13458
1.86 0.166177
1.87 0.195506
1.88 0.223094
1.89 0.249885
1.9 0.276589
1.91 0.3039
1.92 0.332178
1.93 0.361845
1.94 0.392937
1.95 0.425224
1.96 0.458523
1.97 0.49209
1.98 0.52516
1.99 0.556711
2 0.585901
2.01 0.610899
2.02 0.631092
2.03 0.64507
2.04 0.651132
2.05 0.649324
2.06 0.637389
2.07 0.615673
2.08 0.583903
2.09 0.540691
2.1 0.487953
2.11 0.424964
2.12 0.35311
2.13 0.274006
2.14 0.187964
2.15 0.0977862
2.16 0.00492491
2.17 -0.0885163
2.18 -0.180576
2.19 -0.268533
2.2 -0.351039
2.21 -0.42587
2.22 -0.490762
2.23 -0.545541
2.24 -0.587126
2.25 -0.616168
2.26 -0.632124
2.27 -0.633478
2.28 -0.622612
2.29 -0.598504
2.3 -0.563103
2.31 -0.51822
2.32 -0.464198
2.33 -0.404377
2.34 -0.340227
2.35 -0.274093
2.36 -0.208175
2.37 -0.145092
2.38 -0.0863831
2.39 -0.0342784
2.4 0.00920497
2.41 0.0437686
2.42 0.0665826
2.43 0.0784493
2.44 0.0787837
2.45 0.0665941
2.46 0.0439861
2.47 0.0101954
2.48 -0.0327704
2.49 -0.0833556
2.5 -0.140876
2.51 -0.202543
2.52 -0.266914
2.53 -0.331912
2.54 -0.395745
2.55 -0.455996
2.56 -0.511641
2.57 -0.560717
2.58 -0.601721
2.59 -0.634556
2.6 -0.656775
2.61 -0.66942
2.62 -0.671919
2.63 -0.663658
2.64 -0.646397
2.65 -0.619365
2.66 -0.584348
2.67 -0.542416
2.68 -0.49396
2.69 -0.441146
2.7 -0.384729
2.71 -0.326178
2.72 -0.266755
2.73 -0.207613
2.74 -0.14969
2.75 -0.0939942
2.76 -0.0412814
2.77 0.0082427
2.78 0.0535014
2.79 0.0949531
2.8 0.132315
2.81 0.165448
2.82 0.195051
2.83 0.220829
2.84 0.243545
2.85 0.263537
2.86 0.280912
2.87 0.296376
2.88 0.309962
2.89 0.322017
2.9 0.332745
2.91 0.341968
2.92 0.349885
2.93 0.356188
2.94 0.360655
2.95 0.363177
2.96 0.362912
2.97 0.359939
2.98 0.353632
2.99 0.343431
3 0.329444
3.01 0.310634
3.02 0.287377
3.03 0.25945
3.04 0.226399
3.05 0.189027
3.06 0.146925
3.07 0.100829
3.08 0.0513124
3.09 -0.00147448
3.1 -0.0563612
3.11 -0.112823
3.12 -0.169982
3.13 -0.227022
3.14 -0.282931
3.15 -0.337118
3.16 -0.388657
3.17 -0.436749
3.18 -0.4812
3.19 -0.520728
3.2 -0.555625
3.21 -0.585431
3.22 -0.60958
3.23 -0.628765
3.24 -0.642242
3.25 -0.650697
3.26 -0.654424
3.27 -0.65312
3.28 -0.647869
3.29 -0.638512
3.3 -0.625598
3.31 -0.609676
3.32 -0.590512
3.33 -0.568911
3.34 -0.544804
3.35 -0.518315
3.36 -0.489741
3.37 -0.45866
3.38 -0.425396
3.39 -0.389714
3.4 -0.351317
3.41 -0.310395
3.42 -0.266338
3.43 -0.21935
3.44 -0.169335
3.45 -0.115904
3.46 -0.0595924
3.47 -0.000129822
3.48 0.0620564
3.49 0.126515
3.5 0.193123
3.51 0.26099
3.52 0.329587
3.53 0.398132
3.54 0.465891
3.55 0.531681
3.56 0.594956
3.57 0.654633
3.58 0.709618
3.59 0.759683
3.6 0.80307
3.61 0.83993
3.62 0.869596
3.63 0.890892
3.64 0.904705
3.65 0.909743
3.66 0.906683
3.67 0.895953
3.68 0.876708
3.69 0.850721
3.7 0.817728
3.71 0.778584
3.72 0.734465
3.73 0.685204
3.74 0.632499
3.75 0.576811
3.76 0.518895
3.77 0.45968
3.78 0.399698
3.79 0.339656
3.8 0.280064
3.81 0.221437
3.82 0.163979
3.83 0.108164
3.84 0.054024
3.85 0.0016328
3.86 -0.0487152
3.87 -0.0973269
3.88 -0.143996
3.89 -0.188839
3.9 -0.232013
3.91 -0.273197
3.92 -0.312716
3.93 -0.350327
3.94 -0.385894
3.95 -0.419474
3.96 -0.450418
3.97 -0.478862
3.98 -0.504368
3.99 -0.526397
4 -0.545063
4.01 -0.559414
4.02 -0.569594
4.03 -0.575343
4.04 -0.575902
4.05 -0.571904
4.06 -0.56266
4.07 -0.548544
4.08 -0.52998
4.09 -0.506527
4.1 -0.4794
4.11 -0.44873
4.12 -0.415207
4.13 -0.379761
4.14 -0.342921
4.15 -0.305744
4.16 -0.269058
4.17 -0.233813
4.18 -0.200616
4.19 -0.170711
4.2 -0.144391
4.21 -0.122278
4.22 -0.105294
4.23 -0.0930177
4.24 -0.0863175
4.25 -0.0847663
4.26 -0.0880034
4.27 -0.0963887
4.28 -0.108617
4.29 -0.124493
4.3 -0.143145
4.31 -0.163564
4.32 -0.18505
4.33 -0.206488
4.34 -0.22693
4.35 -0.245364
4.36 -0.26121
4.37 -0.27309
4.38 -0.280879
4.39 -0.283917
4.4 -0.281401
4.41 -0.273857
4.42 -0.260431
4.43 -0.241763
4.44 -0.218226
4.45 -0.189634
4.46 -0.157312
4.47 -0.121496
4.48 -0.0831295
4.49 -0.0431697
4.5 -0.00233465
4.51 0.0383584
4.52 0.0780215
4.53 0.115778
4.54 0.151134
4.55 0.18286
4.56 0.210965
4.57 0.234855
4.58 0.25396
4.59 0.26875
4.6 0.278498
4.61 0.283862
4.62 0.285101
4.63 0.282126
4.64 0.275996
4.65 0.266836
4.66 0.255411
4.67 0.242415
4.68 0.228283
4.69 0.213792
4.7 0.199484
4.71 0.185903
4.72 0.173396
4.73 0.162626
4.74 0.153596
4.75 0.146624
4.76 0.141925
4.77 0.139247
4.78 0.138875
4.79 0.140396
4.8 0.143636
4.81 0.14848
4.82 0.154414
4.83 0.16124
4.84 0.16854
4.85 0.175967
4.86 0.183148
4.87 0.189811
4.88 0.195585
4.89 0.200214
4.9 0.203593
4.91 0.205226
4.92 0.205274
4.93 0.203485
4.94 0.199719
4.95 0.19415
4.96 0.186414
4.97 0.176794
4.98 0.165238
4.99 0.151604
5 0.136195
5.01 0.11876
5.02 0.0995042
5.03 0.0784981
5.04 0.0555299
5.05 0.0309397
5.06 0.00456427
5.07 -0.0234687
5.08 -0.0529658
5.09 -0.0841067
5.1 -0.116478
5.11 -0.150038
5.12 -0.184588
5.13 -0.2198
5.14 -0.255467
5.15 -0.291191
5.16 -0.326606
5.17 -0.361235
5.18 -0.394755
5.19 -0.426445
5.2 -0.455992
5.21 -0.482928
5.22 -0.506367
5.23 -0.526366
5.24 -0.541964
5.25 -0.552973
5.26 -0.559332
5.27 -0.559844
5.28 -0.555285
5.29 -0.544958
5.3 -0.528831
5.31 -0.507503
5.32 -0.480063
5.33 -0.447711
5.34 -0.410415
5.35 -0.368345
5.36 -0.322499
5.37 -0.272784
5.38 -0.220207
5.39 -0.165302
5.4 -0.108502
5.41 -0.0506599
5.42 0.00772535
5.43 0.0660218
5.44 0.123717
5.45 0.180126
5.46 0.235013
5.47 0.287783
5.48 0.338116
5.49 0.385973
5.5 0.430556
5.51 0.472272
5.52 0.510757
5.53 0.545831
5.54 0.577851
5.55 0.606244
5.56 0.631505
5.57 0.653576
5.58 0.672222
5.59 0.687946
5.6 0.700326
5.61 0.709668
5.62 0.716064
5.63 0.719085
5.64 0.71925
5.65 0.716169
5.66 0.709933
5.67 0.700767
5.68 0.68805
5.69 0.67241
5.7 0.653579
5.71 0.631568
5.72 0.606798
5.73 0.578893
5.74 0.54849
5.75 0.515706
5.76 0.480694
5.77 0.444066
5.78 0.405992
5.79 0.36706
5.8 0.327735
5.81 0.288543
5.82 0.249969
5.83 0.212671
5.84 0.177129
5.85 0.14371
5.86 0.113369
5.87 0.0860057
5.88 0.0623244
5.89 0.0426431
5.9 0.026777
5.91 0.0156662
5.92 0.00860124
5.93 0.00579496
5.94 0.00731011
5.95 0.0123984
5.96 0.0213131
5.97 0.033206
5.98 0.0476364
5.99 0.0642701
6 0.0822288
6.01 0.101032
6.02 0.119971
6.03 0.13844
6.04 0.155641
6.05 0.171209
6.06 0.184387
6.07 0.194712
6.08 0.202063
6.09 0.205414
6.1 0.205217
6.11 0.201029
6.12 0.192652
6.13 0.180604
6.14 0.164364
6.15 0.144692
6.16 0.121795
6.17 0.0957991
6.18 0.0675379
6.19 0.03719
6.2 0.00545088
6.21 -0.0271321
6.22 -0.0600632
6.23 -0.0927721
6.24 -0.124694
6.25 -0.155359
6.26 -0.184472
6.27 -0.211265
6.28 -0.235844
6.29 -0.257757
6.3 -0.276779
6.31 -0.293141
6.32 -0.30632
6.33 -0.316838
6.34 -0.324717
6.35 -0.329995
6.36 -0.333261
6.37 -0.334538
6.38 -0.334382
6.39 -0.33318
6.4 -0.33126
6.41 -0.329129
6.42 -0.327193
6.43 -0.325848
6.44 -0.325395
6.45 -0.326389
6.46 -0.328856
6.47 -0.333185
6.48 -0.339554
6.49 -0.347855
6.5 -0.358517
6.51 -0.371136
6.52 -0.38573
6.53 -0.402221
6.54 -0.420161
6.55 -0.439478
6.56 -0.459678
6.57 -0.480405
6.58 -0.50126
6.59 -0.521815
6.6 -0.541552
6.61 -0.560075
6.62 -0.577043
6.63 -0.591721
6.64 -0.604126
6.65 -0.613649
6.66 -0.620035
6.67 -0.623366
6.68 -0.622793
6.69 -0.618879
6.7 -0.611316
6.71 -0.599996
6.72 -0.585436
6.73 -0.567217
6.74 -0.546008
6.75 -0.521993
6.76 -0.495245
6.77 -0.466463
6.78 -0.435734
6.79 -0.403604
6.8 -0.37049
6.81 -0.336693
6.82 -0.302696
6.83 -0.26886
6.84 -0.235541
6.85 -0.202987
6.86 -0.171695
6.87 -0.141681
6.88 -0.113268
6.89 -0.0866618
6.9 -0.061777
6.91 -0.039032
6.92 -0.0181632
6.93 0.000751474
6.94 0.0176015
6.95 0.0327138
6.96 0.0458999
6.97 0.0574487
6.98 0.0674985
6.99 0.0760016
7 0.0833278
7.01 0.089472
7.02 0.0946404
7.03 0.0990333
7.04 0.102672
7.05 0.105827
7.06 0.108589
7.07 0.111105
7.08 0.113528
7.09 0.116003
7.1 0.118661
7.11 0.121653
7.12 0.125157
7.13 0.12925
7.14 0.134202
7.15 0.140073
7.16 0.147013
7.17 0.155309
7.18 0.164903
7.19 0.176124
7.2 0.188992
7.21 0.203519
7.22 0.220078
7.23 0.238377
7.24 0.258626
7.25 0.280773
7.26 0.304577
7.27 0.330247
7.28 0.35731
7.29 0.385663
7.3 0.41508
7.31 0.445155
7.32 0.475617
7.33 0.506039
7.34 0.536027
7.35 0.565067
7.36 0.592874
7.37 0.618782
7.38 0.642504
7.39 0.663731
7.4 0.681651
7.41 0.696471
7.42 0.707517
7.43 0.71467
7.44 0.718122
7.45 0.716987
7.46 0.712087
7.47 0.703144
7.48 0.690229
7.49 0.67399
7.5 0.654138
7.51 0.631532
7.52 0.606471
7.53 0.579265
7.54 0.550656
7.55 0.520978
7.56 0.490844
7.57 0.460739
7.58 0.431212
7.59 0.402602
7.6 0.375457
7.61 0.350071
7.62 0.326585
7.63 0.305625
7.64 0.286895
7.65 0.270697
7.66 0.257044
7.67 0.245611
7.68 0.236679
7.69 0.229672
7.7 0.224457
7.71 0.220828
7.72 0.218291
7.73 0.216657
7.74 0.215486
7.75 0.214458
7.76 0.213227
7.77 0.211542
7.78 0.209058
7.79 0.205599
7.8 0.201055
7.81 0.195096
7.82 0.187891
7.83 0.179286
7.84 0.169332
7.85 0.158232
7.86 0.145897
7.87 0.132691
7.88 0.118737
7.89 0.10423
7.9 0.0894429
7.91 0.0745789
7.92 0.0598647
7.93 0.0454995
7.94 0.031718
7.95 0.0185841
7.96 0.00632294
7.97 -0.00504986
7.98 -0.0155294
7.99 -0.02498
8 -0.033609
8.01 -0.0414051
8.02 -0.0485158
8.03 -0.0551391
8.04 -0.0613836
8.05 -0.0675132
8.06 -0.0737305
8.07 -0.0802725
8.08 -0.0873066
8.09 -0.0951675
8.1 -0.103936
8.11 -0.113814
8.12 -0.12505
8.13 -0.13757
8.14 -0.151665
8.15 -0.167229
8.16 -0.184232
8.17 -0.202818
8.18 -0.222662
8.19 -0.243794
8.2 -0.265992
8.21 -0.289002
8.22 -0.312718
8.23 -0.336777
8.24 -0.360943
8.25 -0.384923
8.26 -0.408475
8.27 -0.431182
8.28 -0.452897
8.29 -0.473307
8.3 -0.492058
8.31 -0.509148
8.32 -0.524072
8.33 -0.53689
8.34 -0.547475
8.35 -0.555449
8.36 -0.561136
8.37 -0.564184
8.38 -0.564753
8.39 -0.56302
8.4 -0.55866
8.41 -0.552214
8.42 -0.543581
8.43 -0.532934
8.44 -0.520619
8.45 -0.506499
8.46 -0.491053
8.47 -0.474366
8.48 -0.456577
8.49 -0.43798
8.5 -0.418608
8.51 -0.398695
8.52 -0.378349
8.53 -0.357634
8.54 -0.336672
8.55 -0.315474
8.56 -0.294079
8.57 -0.27249
8.58 -0.250646
8.59 -0.228543
8.6 -0.206084
8.61 -0.183201
8.62 -0.159858
8.63 -0.135858
8.64 -0.111243
8.65 -0.0858921
8.66 -0.0597303
8.67 -0.0328203
8.68 -0.00501829
8.69 0.0235306
8.7 0.0527937
8.71 0.0827284
8.72 0.113125
8.73 0.14388
8.74 0.174765
8.75 0.205569
8.76 0.236001
8.77 0.265864
8.78 0.294795
8.79 0.32254
8.8 0.348934
8.81 0.373395
8.82 0.396022
8.83 0.416413
8.84 0.434351
8.85 0.449964
8.86 0.462691
8.87 0.472918
8.88 0.480535
8.89 0.485445
8.9 0.488108
8.91 0.48834
8.92 0.486613
8.93 0.483186
8.94 0.478182
8.95 0.472139
8.96 0.465271
8.97 0.457967
8.98 0.450561
8.99 0.443402
9 0.436726
9.01 0.430844
9.02 0.425969
9.03 0.422149
9.04 0.419716
9.05 0.418487
9.06 0.418523
9.07 0.419798
9.08 0.422038
9.09 0.425198
9.1 0.428937
9.11 0.432999
9.12 0.437085
9.13 0.440888
9.14 0.444017
9.15 0.446192
9.16 0.447169
9.17 0.446432
9.18 0.444024
9.19 0.439536
9.2 0.432855
9.21 0.424085
9.22 0.412729
9.23 0.399253
9.24 0.383541
9.25 0.365652
9.26 0.345984
9.27 0.324438
9.28 0.301495
9.29 0.277359
9.3 0.252222
9.31 0.226471
9.32 0.200291
9.33 0.173961
9.34 0.147687
9.35 0.121681
9.36 0.0960371
9.37 0.0709037
9.38 0.0463184
9.39 0.0222507
9.4 -0.00123003
9.41 -0.0242923
9.42 -0.0469942
9.43 -0.0694603
9.44 -0.0918425
9.45 -0.114291
9.46 -0.136935
9.47 -0.15991
9.48 -0.183352
9.49 -0.207274
9.5 -0.231797
9.51 -0.256857
9.52 -0.2824
9.53 -0.308374
9.54 -0.334571
9.55 -0.360814
9.56 -0.386855
9.57 -0.412454
9.58 -0.437175
9.59 -0.460854
9.6 -0.483038
9.61 -0.503383
9.62 -0.521776
9.63 -0.537473
9.64 -0.550646
9.65 -0.560913
9.66 -0.567943
9.67 -0.572024
9.68 -0.572581
9.69 -0.570035
9.7 -0.564431
9.71 -0.555605
9.72 -0.544208
9.73 -0.530138
9.74 -0.513887
9.75 -0.495867
9.76 -0.476211
9.77 -0.455557
9.78 -0.434193
9.79 -0.412533
9.8 -0.390944
9.81 -0.369851
9.82 -0.349474
9.83 -0.33014
9.84 -0.312128
9.85 -0.295449
9.86 -0.28049
9.87 -0.267099
9.88 -0.255338
9.89 -0.245319
9.9 -0.236742
9.91 -0.229713
9.92 -0.223967
9.93 -0.21932
9.94 -0.215737
9.95 -0.21288
9.96 -0.210657
9.97 -0.208872
9.98 -0.207349
9.99 -0.205984
10 -0.204637
10.01 -0.203226
10.02 -0.201683
10.03 -0.199987
10.04 -0.198096
10.05 -0.196045
10.06 -0.193851
10.07 -0.191544
10.08 -0.189181
10.09 -0.186802
10.1 -0.184453
10.11 -0.182167
10.12 -0.179977
10.13 -0.177876
10.14 -0.175863
10.15 -0.173901
10.16 -0.17194
10.17 -0.169896
10.18 -0.167696
10.19 -0.165218
10.2 -0.16234
10.21 -0.15899
10.22 -0.154926
10.23 -0.150143
10.24 -0.144485
10.25 -0.137799
10.26 -0.130137
10.27 -0.121264
10.28 -0.111286
10.29 -0.100194
10.3 -0.0878942
10.31 -0.0746148
10.32 -0.0603051
10.33 -0.0451463
10.34 -0.0293035
10.35 -0.0128399
10.36 0.00397942
10.37 0.0210117
10.38 0.0380635
10.39 0.0549684
10.4 0.0714907
10.41 0.0875387
10.42 0.102932
10.43 0.117516
10.44 0.131292
10.45 0.144031
10.46 0.15582
10.47 0.166621
10.48 0.176353
10.49 0.185195
10.5 0.19307
10.51 0.200131
10.52 0.206486
10.53 0.21214
10.54 0.217301
10.55 0.222014
10.56 0.226395
10.57 0.230553
10.58 0.23453
10.59 0.23842
10.6 0.242256
10.61 0.246066
10.62 0.249857
10.63 0.253611
10.64 0.257305
10.65 0.260888
10.66 0.264288
10.67 0.267464
10.68 0.270293
10.69 0.27273
10.7 0.274704
10.71 0.276073
10.72 0.276864
10.73 0.276943
10.74 0.276302
10.75 0.274967
10.76 0.272796
10.77 0.269945
10.78 0.266373
10.79 0.26213
10.8 0.257344
10.81 0.252
10.82 0.246278
10.83 0.240259
10.84 0.234048
10.85 0.22778
10.86 0.221579
10.87 0.215554
10.88 0.209815
10.89 0.204511
10.9 0.199671
10.91 0.19545
10.92 0.191878
10.93 0.188973
10.94 0.186888
10.95 0.185505
10.96 0.184902
10.97 0.185048
10.98 0.185839
10.99 0.187342
11 0.189366
11.01 0.191863
11.02 0.194741
11.03 0.197846
11.04 0.201076
11.05 0.204279
11.06 0.207313
11.07 0.21
11.08 0.212243
11.09 0.21381
11.1 0.214603
11.11 0.214515
11.12 0.213256
11.13 0.210897
11.14 0.207188
11.15 0.202077
11.16 0.195617
11.17 0.187466
11.18 0.177907
11.19 0.16681
11.2 0.154182
11.21 0.140247
11.22 0.124865
11.23 0.108362
11.24 0.0908418
11.25 0.0724228
11.26 0.0534136
11.27 0.0339645
11.28 0.0143569
11.29 -0.00517021
11.3 -0.0243177
11.31 -0.0428998
11.32 -0.0605784
11.33 -0.0771523
11.34 -0.092497
11.35 -0.106149
11.36 -0.118243
11.37 -0.128486
11.38 -0.136776
11.39 -0.143266
11.4 -0.14759
11.41 -0.150119
11.42 -0.15083
11.43 -0.14975
11.44 -0.147251
11.45 -0.14331
11.46 -0.138304
11.47 -0.132469
11.48 -0.126
11.49 -0.119247
11.5 -0.11246
11.51 -0.105909
11.52 -0.0998156
11.53 -0.0945257
11.54 -0.0901032
11.55 -0.0868233
11.56 -0.0848173
11.57 -0.0840579
11.58 -0.084878
11.59 -0.0870357
11.6 -0.0906178
11.61 -0.0956296
11.62 -0.101828
11.63 -0.109306
11.64 -0.117777
11.65 -0.127119
11.66 -0.137246
11.67 -0.147899
11.68 -0.158988
11.69 -0.170329
11.7 -0.181788
11.71 -0.193246
11.72 -0.204607
11.73 -0.215778
11.74 -0.226705
11.75 -0.237376
11.76 -0.247717
11.77 -0.257787
11.78 -0.267575
11.79 -0.277097
11.8 -0.286407
11.81 -0.295496
11.82 -0.304416
11.83 -0.313169
11.84 -0.32174
11.85 -0.330135
11.86 -0.338281
11.87 -0.346138
11.88 -0.353636
11.89 -0.360608
11.9 -0.367021
11.91 -0.372656
11.92 -0.377396
11.93 -0.381167
11.94 -0.383597
11.95 -0.38478
11.96 -0.384452
11.97 -0.382482
11.98 -0.378954
11.99 -0.373491
12 -0.366358
12.01 -0.357473
12.02 -0.346784
12.03 -0.334596
12.04 -0.320795
12.05 -0.305714
12.06 -0.289538
12.07 -0.272383
12.08 -0.254622
12.09 -0.236441
12.1 -0.218131
12.11 -0.19994
12.12 -0.182176
12.13 -0.164994
12.14 -0.148671
12.15 -0.133387
12.16 -0.119174
12.17 -0.106373
12.18 -0.0948123
12.19 -0.0845977
12.2 -0.0757611
12.21 -0.0680778
12.22 -0.0616353
12.23 -0.0561461
12.24 -0.0514651
12.25 -0.0474642
12.26 -0.0438558
12.27 -0.0404706
12.28 -0.0370785
12.29 -0.0334886
12.3 -0.0294515
12.31 -0.0248738
12.32 -0.0195377
12.33 -0.013338
12.34 -0.00626898
12.35 0.00192558
12.36 0.0110692
12.37 0.0212426
12.38 0.0324368
12.39 0.0444827
12.4 0.0574455
12.41 0.0711016
12.42 0.0853635
12.43 0.100145
12.44 0.115256
12.45 0.130609
12.46 0.146053
12.47 0.161475
12.48 0.176744
12.49 0.191782
12.5 0.206461
12.51 0.220705
12.52 0.234474
12.53 0.247585
12.54 0.260084
12.55 0.271838
12.56 0.28276
12.57 0.292866
12.58 0.301899
12.59 0.309927
12.6 0.316798
12.61 0.322321
12.62 0.326555
12.63 0.329146
12.64 0.33014
12.65 0.329422
12.66 0.326654
12.67 0.322035
12.68 0.315208
12.69 0.306224
12.7 0.295165
12.71 0.281641
12.72 0.266091
12.73 0.248354
12.74 0.228553
12.75 0.207019
12.76 0.183615
12.77 0.158869
12.78 0.132944
12.79 0.1061
12.8 0.0787406
12.81 0.051147
12.82 0.0236839
12.83 -0.00332396
12.84 -0.0294711
12.85 -0.0545923
12.86 -0.078242
12.87 -0.100289
12.88 -0.120625
12.89 -0.138818
12.9 -0.15514
12.91 -0.169347
12.92 -0.181525
12.93 -0.191938
12.94 -0.200378
12.95 -0.207383
12.96 -0.213052
12.97 -0.217622
12.98 -0.221473
12.99 -0.224797
13 -0.227943
13.01 -0.23116
13.02 -0.234719
13.03 -0.238764
13.04 -0.243543
13.05 -0.249096
13.06 -0.255452
13.07 -0.262705
13.08 -0.270646
13.09 -0.279218
13.1 -0.288201
13.11 -0.297345
13.12 -0.30635
13.13 -0.314935
