# xPDFsuite Configuration #
[PDF]
wavelength = 0.1
dataformat = Qnm
inputfile = A3-Li-TiO2-12h-p2_036.chi
backgroundfile = A2_Bkg-Li_d22-00000.chi
mode = xray
bgscale = 0.91
composition = TiO2
outputtype = gr
qmaxinst = 21.4
qmin = 0.1
qmax = 21.4
rmax = 100.0
rmin = 0.0
rstep = 0.01
rpoly = 0.9

[Misc]
inputdir = D:/APS_March_2019/Run3/Processed-Data/A3-Li-TiO2-12h-p2/chi-files
savedir = D:/APS_March_2019/Run3/Processed-Data/A3-Li-TiO2-12h-p2
backgroundfilefull = D:/APS_March_2019/Calib-Bkg/A2_Bkg-Li_d22-00000.chi

#### start data
#S 1
#L r($\AA$)  G($\AA^{-2}$)
0 0
0.01 -0.000410311
0.02 -0.000802762
0.03 -0.00115836
0.04 -0.0014593
0.05 -0.00169901
0.06 -0.00185383
0.07 -0.00192819
0.08 -0.00191587
0.09 -0.00181042
0.1 -0.00162817
0.11 -0.00136577
0.12 -0.00104214
0.13 -0.000672454
0.14 -0.000270368
0.15 0.000139968
0.16 0.000536258
0.17 0.000894595
0.18 0.00119461
0.19 0.00139373
0.2 0.0014829
0.21 0.00142225
0.22 0.00117996
0.23 0.000747844
0.24 5.40235e-05
0.25 -0.000890716
0.26 -0.00212719
0.27 -0.00370128
0.28 -0.00559093
0.29 -0.00786744
0.3 -0.0104982
0.31 -0.0134799
0.32 -0.0168356
0.33 -0.0204784
0.34 -0.0243894
0.35 -0.0284722
0.36 -0.0326186
0.37 -0.0366788
0.38 -0.0405013
0.39 -0.0438454
0.4 -0.0464598
0.41 -0.0481611
0.42 -0.048393
0.43 -0.0470635
0.44 -0.0436999
0.45 -0.0378034
0.46 -0.0293181
0.47 -0.0173555
0.48 -0.00197723
0.49 0.0171787
0.5 0.0407913
0.51 0.0684266
0.52 0.100813
0.53 0.137621
0.54 0.178589
0.55 0.224115
0.56 0.273113
0.57 0.325464
0.58 0.3804
0.59 0.436959
0.6 0.494355
0.61 0.551377
0.62 0.606792
0.63 0.65917
0.64 0.707588
0.65 0.749695
0.66 0.784947
0.67 0.81179
0.68 0.828112
0.69 0.834215
0.7 0.827367
0.71 0.807892
0.72 0.775523
0.73 0.728109
0.74 0.667969
0.75 0.593779
0.76 0.50675
0.77 0.408707
0.78 0.298957
0.79 0.181096
0.8 0.0561911
0.81 -0.0736012
0.82 -0.205647
0.83 -0.337549
0.84 -0.466829
0.85 -0.590861
0.86 -0.706593
0.87 -0.812855
0.88 -0.905645
0.89 -0.984438
0.9 -1.0478
0.91 -1.0925
0.92 -1.12057
0.93 -1.12937
0.94 -1.12014
0.95 -1.09452
0.96 -1.05086
0.97 -0.99376
0.98 -0.923789
0.99 -0.843519
1 -0.756405
1.01 -0.664464
1.02 -0.571491
1.03 -0.480491
1.04 -0.394879
1.05 -0.316767
1.06 -0.250546
1.07 -0.197218
1.08 -0.158881
1.09 -0.138802
1.1 -0.135381
1.11 -0.15159
1.12 -0.185933
1.13 -0.237028
1.14 -0.306139
1.15 -0.38862
1.16 -0.483704
1.17 -0.588327
1.18 -0.698898
1.19 -0.81283
1.2 -0.926217
1.21 -1.03562
1.22 -1.13736
1.23 -1.22939
1.24 -1.30665
1.25 -1.36866
1.26 -1.41307
1.27 -1.43678
1.28 -1.44181
1.29 -1.42498
1.3 -1.38861
1.31 -1.33417
1.32 -1.26094
1.33 -1.17396
1.34 -1.07424
1.35 -0.965424
1.36 -0.851234
1.37 -0.734722
1.38 -0.619775
1.39 -0.510078
1.4 -0.409247
1.41 -0.319182
1.42 -0.245087
1.43 -0.186822
1.44 -0.146784
1.45 -0.127394
1.46 -0.126463
1.47 -0.146869
1.48 -0.185675
1.49 -0.241432
1.5 -0.314091
1.51 -0.398859
1.52 -0.494448
1.53 -0.597161
1.54 -0.703585
1.55 -0.81056
1.56 -0.914838
1.57 -1.01297
1.58 -1.10198
1.59 -1.18046
1.6 -1.24382
1.61 -1.29289
1.62 -1.32565
1.63 -1.34068
1.64 -1.34009
1.65 -1.3217
1.66 -1.28852
1.67 -1.24172
1.68 -1.1818
1.69 -1.1125
1.7 -1.03478
1.71 -0.951468
1.72 -0.864873
1.73 -0.776842
1.74 -0.689421
1.75 -0.604314
1.76 -0.522777
1.77 -0.44528
1.78 -0.37321
1.79 -0.305647
1.8 -0.242578
1.81 -0.183336
1.82 -0.126477
1.83 -0.0708918
1.84 -0.0148876
1.85 0.043135
1.86 0.105157
1.87 0.172098
1.88 0.246199
1.89 0.327951
1.9 0.417828
1.91 0.51735
1.92 0.624845
1.93 0.740604
1.94 0.863117
1.95 0.990333
1.96 1.12069
1.97 1.25114
1.98 1.3788
1.99 1.5003
2 1.61327
2.01 1.71225
2.02 1.79608
2.03 1.86112
2.04 1.90311
2.05 1.92291
2.06 1.91493
2.07 1.88077
2.08 1.82024
2.09 1.73026
2.1 1.61616
2.11 1.47643
2.12 1.31476
2.13 1.13523
2.14 0.938553
2.15 0.73145
2.16 0.517101
2.17 0.300151
2.18 0.0849621
2.19 -0.122981
2.2 -0.320717
2.21 -0.503839
2.22 -0.66794
2.23 -0.81271
2.24 -0.932371
2.25 -1.02832
2.26 -1.09971
2.27 -1.14392
2.28 -1.1656
2.29 -1.16309
2.3 -1.14014
2.31 -1.10019
2.32 -1.04398
2.33 -0.97751
2.34 -0.903363
2.35 -0.825552
2.36 -0.747765
2.37 -0.674128
2.38 -0.60705
2.39 -0.549807
2.4 -0.505192
2.41 -0.473365
2.42 -0.457914
2.43 -0.457217
2.44 -0.471466
2.45 -0.50115
2.46 -0.542882
2.47 -0.596478
2.48 -0.658662
2.49 -0.726715
2.5 -0.798269
2.51 -0.869929
2.52 -0.938616
2.53 -1.00148
2.54 -1.05657
2.55 -1.09949
2.56 -1.13049
2.57 -1.1469
2.58 -1.14733
2.59 -1.133
2.6 -1.10104
2.61 -1.0544
2.62 -0.993366
2.63 -0.918321
2.64 -0.832653
2.65 -0.736756
2.66 -0.633732
2.67 -0.525761
2.68 -0.414684
2.69 -0.303001
2.7 -0.192705
2.71 -0.0855066
2.72 0.0174521
2.73 0.114053
2.74 0.204635
2.75 0.288153
2.76 0.36453
2.77 0.434724
2.78 0.498157
2.79 0.556677
2.8 0.610971
2.81 0.662006
2.82 0.711272
2.83 0.759733
2.84 0.80852
2.85 0.858481
2.86 0.910489
2.87 0.964641
2.88 1.02136
2.89 1.08027
2.9 1.14079
2.91 1.20224
2.92 1.26339
2.93 1.3228
2.94 1.37888
2.95 1.4304
2.96 1.47431
2.97 1.51018
2.98 1.53568
2.99 1.54875
3 1.54957
3.01 1.53465
3.02 1.50519
3.03 1.46046
3.04 1.39894
3.05 1.32325
3.06 1.23199
3.07 1.12744
3.08 1.01136
3.09 0.883914
3.1 0.748753
3.11 0.607119
3.12 0.461504
3.13 0.314306
3.14 0.167857
3.15 0.0241367
3.16 -0.114581
3.17 -0.246248
3.18 -0.370157
3.19 -0.483319
3.2 -0.586224
3.21 -0.677772
3.22 -0.75665
3.23 -0.8244
3.24 -0.879379
3.25 -0.923161
3.26 -0.956461
3.27 -0.978694
3.28 -0.992334
3.29 -0.997152
3.3 -0.994451
3.31 -0.985517
3.32 -0.970036
3.33 -0.949779
3.34 -0.924771
3.35 -0.895398
3.36 -0.86233
3.37 -0.824943
3.38 -0.78388
3.39 -0.738802
3.4 -0.689259
3.41 -0.635589
3.42 -0.576817
3.43 -0.513299
3.44 -0.444912
3.45 -0.371086
3.46 -0.292742
3.47 -0.209561
3.48 -0.122339
3.49 -0.0319112
3.5 0.0612643
3.51 0.15571
3.52 0.250311
3.53 0.343645
3.54 0.434501
3.55 0.52057
3.56 0.601147
3.57 0.67433
3.58 0.738288
3.59 0.792899
3.6 0.835211
3.61 0.865836
3.62 0.883916
3.63 0.88781
3.64 0.879386
3.65 0.856981
3.66 0.822137
3.67 0.775982
3.68 0.717893
3.69 0.650933
3.7 0.575447
3.71 0.493228
3.72 0.406303
3.73 0.315581
3.74 0.223315
3.75 0.13089
3.76 0.0398321
3.77 -0.0488084
3.78 -0.133296
3.79 -0.213292
3.8 -0.287948
3.81 -0.356317
3.82 -0.418972
3.83 -0.47493
3.84 -0.524928
3.85 -0.569341
3.86 -0.607879
3.87 -0.641931
3.88 -0.671501
3.89 -0.697392
3.9 -0.720395
3.91 -0.74057
3.92 -0.758861
3.93 -0.775441
3.94 -0.790575
3.95 -0.804555
3.96 -0.817184
3.97 -0.828593
3.98 -0.83854
3.99 -0.846665
4 -0.852914
4.01 -0.856597
4.02 -0.857663
4.03 -0.855832
4.04 -0.850511
4.05 -0.842075
4.06 -0.830056
4.07 -0.814765
4.08 -0.796596
4.09 -0.775478
4.1 -0.752403
4.11 -0.72781
4.12 -0.702499
4.13 -0.677294
4.14 -0.653257
4.15 -0.631079
4.16 -0.611762
4.17 -0.596312
4.18 -0.584947
4.19 -0.579057
4.2 -0.578396
4.21 -0.583261
4.22 -0.594204
4.23 -0.610162
4.24 -0.63138
4.25 -0.656766
4.26 -0.685308
4.27 -0.71623
4.28 -0.747919
4.29 -0.779
4.3 -0.807932
4.31 -0.83351
4.32 -0.853183
4.33 -0.86657
4.34 -0.871739
4.35 -0.867182
4.36 -0.853039
4.37 -0.826619
4.38 -0.789072
4.39 -0.739799
4.4 -0.677921
4.41 -0.605463
4.42 -0.521467
4.43 -0.427908
4.44 -0.326105
4.45 -0.216512
4.46 -0.101852
4.47 0.0167192
4.48 0.137176
4.49 0.257684
4.5 0.376089
4.51 0.491024
4.52 0.600447
4.53 0.702682
4.54 0.797224
4.55 0.881229
4.56 0.955365
4.57 1.01846
4.58 1.06935
4.59 1.10941
4.6 1.1369
4.61 1.15341
4.62 1.15947
4.63 1.15458
4.64 1.14115
4.65 1.11903
4.66 1.08979
4.67 1.05487
4.68 1.01459
4.69 0.97098
4.7 0.924843
4.71 0.877355
4.72 0.829612
4.73 0.782712
4.74 0.737404
4.75 0.694603
4.76 0.655204
4.77 0.619394
4.78 0.58842
4.79 0.562162
4.8 0.541037
4.81 0.525884
4.82 0.516055
4.83 0.512479
4.84 0.514757
4.85 0.52263
4.86 0.536872
4.87 0.556272
4.88 0.581164
4.89 0.611051
4.9 0.645075
4.91 0.683478
4.92 0.724854
4.93 0.768729
4.94 0.814284
4.95 0.860476
4.96 0.906272
4.97 0.950663
4.98 0.992513
4.99 1.03034
5 1.06358
5.01 1.09024
5.02 1.10979
5.03 1.1214
5.04 1.12288
5.05 1.11503
5.06 1.09596
5.07 1.0656
5.08 1.02454
5.09 0.970546
5.1 0.906033
5.11 0.830337
5.12 0.743967
5.13 0.648805
5.14 0.544326
5.15 0.433102
5.16 0.31614
5.17 0.194688
5.18 0.0708021
5.19 -0.0541093
5.2 -0.178295
5.21 -0.300224
5.22 -0.417889
5.23 -0.530555
5.24 -0.636158
5.25 -0.73393
5.26 -0.823473
5.27 -0.902449
5.28 -0.972164
5.29 -1.03133
5.3 -1.07993
5.31 -1.11914
5.32 -1.14745
5.33 -1.16713
5.34 -1.17825
5.35 -1.18122
5.36 -1.17784
5.37 -1.168
5.38 -1.15338
5.39 -1.13478
5.4 -1.11274
5.41 -1.08849
5.42 -1.06245
5.43 -1.03532
5.44 -1.00758
5.45 -0.979505
5.46 -0.951354
5.47 -0.923206
5.48 -0.895048
5.49 -0.866791
5.5 -0.838213
5.51 -0.809158
5.52 -0.779347
5.53 -0.748503
5.54 -0.716542
5.55 -0.683062
5.56 -0.648154
5.57 -0.611748
5.58 -0.573774
5.59 -0.534581
5.6 -0.494244
5.61 -0.453192
5.62 -0.411828
5.63 -0.370648
5.64 -0.330126
5.65 -0.290929
5.66 -0.253591
5.67 -0.21847
5.68 -0.186623
5.69 -0.157913
5.7 -0.133022
5.71 -0.112299
5.72 -0.0954564
5.73 -0.0832964
5.74 -0.0750578
5.75 -0.0707157
5.76 -0.0701742
5.77 -0.072524
5.78 -0.0776292
5.79 -0.0845743
5.8 -0.0926708
5.81 -0.101219
5.82 -0.109412
5.83 -0.116384
5.84 -0.121434
5.85 -0.124037
5.86 -0.12301
5.87 -0.118448
5.88 -0.109528
5.89 -0.095919
5.9 -0.0778993
5.91 -0.0544863
5.92 -0.0265879
5.93 0.00591523
5.94 0.0429529
5.95 0.0836132
5.96 0.127994
5.97 0.175121
5.98 0.224437
5.99 0.275459
6 0.32731
6.01 0.379387
6.02 0.431006
6.03 0.481595
6.04 0.530299
6.05 0.576897
6.06 0.62064
6.07 0.661132
6.08 0.698339
6.09 0.731216
6.1 0.760287
6.11 0.785074
6.12 0.80532
6.13 0.821504
6.14 0.832888
6.15 0.840144
6.16 0.843262
6.17 0.842023
6.18 0.837185
6.19 0.828412
6.2 0.81626
6.21 0.801068
6.22 0.782709
6.23 0.761972
6.24 0.738893
6.25 0.713904
6.26 0.687484
6.27 0.659771
6.28 0.631366
6.29 0.602586
6.3 0.573832
6.31 0.545451
6.32 0.517935
6.33 0.491499
6.34 0.466496
6.35 0.443328
6.36 0.421971
6.37 0.40291
6.38 0.386034
6.39 0.371356
6.4 0.359124
6.41 0.348869
6.42 0.340667
6.43 0.334162
6.44 0.328953
6.45 0.324848
6.46 0.321249
6.47 0.317746
6.48 0.313835
6.49 0.309115
6.5 0.302872
6.51 0.29491
6.52 0.284735
6.53 0.271864
6.54 0.256385
6.55 0.237656
6.56 0.215969
6.57 0.191337
6.58 0.163593
6.59 0.133416
6.6 0.100832
6.61 0.0664458
6.62 0.0308283
6.63 -0.00554812
6.64 -0.0419426
6.65 -0.0776695
6.66 -0.112035
6.67 -0.144563
6.68 -0.174127
6.69 -0.200676
6.7 -0.223482
6.71 -0.241978
6.72 -0.256387
6.73 -0.265764
6.74 -0.270693
6.75 -0.271143
6.76 -0.266917
6.77 -0.258955
6.78 -0.247147
6.79 -0.232326
6.8 -0.215145
6.81 -0.196002
6.82 -0.175876
6.83 -0.15539
6.84 -0.135291
6.85 -0.116172
6.86 -0.0990012
6.87 -0.083996
6.88 -0.0718642
6.89 -0.0631029
6.9 -0.0576404
6.91 -0.0563518
6.92 -0.0587565
6.93 -0.0650096
6.94 -0.0752962
6.95 -0.0889186
6.96 -0.10613
6.97 -0.126261
6.98 -0.148906
6.99 -0.173924
7 -0.200528
7.01 -0.22845
7.02 -0.257163
7.03 -0.286211
7.04 -0.315169
7.05 -0.343677
7.06 -0.371332
7.07 -0.397797
7.08 -0.422936
7.09 -0.4462
7.1 -0.467668
7.11 -0.487053
7.12 -0.504057
7.13 -0.518835
7.14 -0.530847
7.15 -0.540259
7.16 -0.546932
7.17 -0.550399
7.18 -0.550989
7.19 -0.548128
7.2 -0.541877
7.21 -0.532271
7.22 -0.518567
7.23 -0.501327
7.24 -0.480043
7.25 -0.454694
7.26 -0.425638
7.27 -0.392125
7.28 -0.354986
7.29 -0.314083
7.3 -0.269492
7.31 -0.221903
7.32 -0.171166
7.33 -0.11808
7.34 -0.063048
7.35 -0.00645298
7.36 0.050969
7.37 0.108723
7.38 0.166202
7.39 0.222883
7.4 0.278035
7.41 0.331431
7.42 0.382409
7.43 0.430678
7.44 0.476226
7.45 0.518277
7.46 0.557397
7.47 0.593357
7.48 0.626241
7.49 0.656611
7.5 0.684369
7.51 0.710278
7.52 0.734714
7.53 0.758107
7.54 0.781073
7.55 0.804093
7.56 0.827629
7.57 0.852062
7.58 0.877884
7.59 0.905106
7.6 0.934034
7.61 0.964582
7.62 0.996509
7.63 1.02975
7.64 1.06367
7.65 1.09777
7.66 1.13135
7.67 1.16376
7.68 1.19377
7.69 1.22084
7.7 1.24388
7.71 1.26162
7.72 1.27386
7.73 1.27869
7.74 1.27612
7.75 1.26551
7.76 1.24532
7.77 1.21658
7.78 1.17784
7.79 1.12964
7.8 1.07263
7.81 1.0056
7.82 0.930712
7.83 0.847738
7.84 0.757598
7.85 0.661816
7.86 0.560428
7.87 0.455453
7.88 0.347765
7.89 0.238514
7.9 0.128978
7.91 0.0203878
7.92 -0.0862996
7.93 -0.190094
7.94 -0.289729
7.95 -0.385054
7.96 -0.474727
7.97 -0.558665
7.98 -0.636737
7.99 -0.707778
8 -0.77283
8.01 -0.831207
8.02 -0.883238
8.03 -0.929704
8.04 -0.969785
8.05 -1.00501
8.06 -1.03536
8.07 -1.0612
8.08 -1.08346
8.09 -1.10197
8.1 -1.11767
8.11 -1.13083
8.12 -1.14161
8.13 -1.1506
8.14 -1.15774
8.15 -1.16335
8.16 -1.16753
8.17 -1.1701
8.18 -1.17128
8.19 -1.17078
8.2 -1.16853
8.21 -1.16449
8.22 -1.15809
8.23 -1.14952
8.24 -1.13834
8.25 -1.1243
8.26 -1.10749
8.27 -1.08716
8.28 -1.06369
8.29 -1.03677
8.3 -1.00611
8.31 -0.972111
8.32 -0.93422
8.33 -0.892882
8.34 -0.848184
8.35 -0.79987
8.36 -0.748636
8.37 -0.694299
8.38 -0.637294
8.39 -0.578036
8.4 -0.516495
8.41 -0.453393
8.42 -0.388942
8.43 -0.323569
8.44 -0.257744
8.45 -0.191877
8.46 -0.126405
8.47 -0.0617903
8.48 0.00145628
8.49 0.063097
8.5 0.122377
8.51 0.179186
8.52 0.233133
8.53 0.283562
8.54 0.330688
8.55 0.373749
8.56 0.412841
8.57 0.447982
8.58 0.478446
8.59 0.504962
8.6 0.527092
8.61 0.545036
8.62 0.559303
8.63 0.569342
8.64 0.576157
8.65 0.579748
8.66 0.580378
8.67 0.578708
8.68 0.574731
8.69 0.56913
8.7 0.56221
8.71 0.554253
8.72 0.545709
8.73 0.53681
8.74 0.527843
8.75 0.519006
8.76 0.510496
8.77 0.502361
8.78 0.494702
8.79 0.487501
8.8 0.480683
8.81 0.474223
8.82 0.467943
8.83 0.461718
8.84 0.455387
8.85 0.448817
8.86 0.441787
8.87 0.434239
8.88 0.426048
8.89 0.4171
8.9 0.407472
8.91 0.397077
8.92 0.38607
8.93 0.374573
8.94 0.362721
8.95 0.350771
8.96 0.338979
8.97 0.327619
8.98 0.316939
8.99 0.307408
9 0.299116
9.01 0.292475
9.02 0.287728
9.03 0.284871
9.04 0.284463
9.05 0.286189
9.06 0.290214
9.07 0.296593
9.08 0.304937
9.09 0.315382
9.1 0.32744
9.11 0.340843
9.12 0.355354
9.13 0.370463
9.14 0.385842
9.15 0.401075
9.16 0.415812
9.17 0.429569
9.18 0.4422
9.19 0.453298
9.2 0.462682
9.21 0.470378
9.22 0.475942
9.23 0.479752
9.24 0.481726
9.25 0.481953
9.26 0.480808
9.27 0.478308
9.28 0.474898
9.29 0.470833
9.3 0.466376
9.31 0.461846
9.32 0.457504
9.33 0.453546
9.34 0.45011
9.35 0.447369
9.36 0.445233
9.37 0.443712
9.38 0.442638
9.39 0.441783
9.4 0.440851
9.41 0.439518
9.42 0.437343
9.43 0.433856
9.44 0.42878
9.45 0.421281
9.46 0.411285
9.47 0.39828
9.48 0.381684
9.49 0.361692
9.5 0.337518
9.51 0.309474
9.52 0.277578
9.53 0.241452
9.54 0.201907
9.55 0.158779
9.56 0.112638
9.57 0.064081
9.58 0.0132562
9.59 -0.0389135
9.6 -0.0919831
9.61 -0.145334
9.62 -0.198411
9.63 -0.250524
9.64 -0.301345
9.65 -0.350367
9.66 -0.397123
9.67 -0.44164
9.68 -0.483337
9.69 -0.522465
9.7 -0.559018
9.71 -0.592841
9.72 -0.624498
9.73 -0.653941
9.74 -0.681627
9.75 -0.707943
9.76 -0.733062
9.77 -0.757513
9.78 -0.781546
9.79 -0.805458
9.8 -0.82947
9.81 -0.853785
9.82 -0.878428
9.83 -0.90342
9.84 -0.928672
9.85 -0.953995
9.86 -0.979106
9.87 -1.00371
9.88 -1.02742
9.89 -1.04969
9.9 -1.07028
9.91 -1.08842
9.92 -1.10387
9.93 -1.11631
9.94 -1.12486
9.95 -1.12984
9.96 -1.13056
9.97 -1.127
9.98 -1.11946
9.99 -1.10717
10 -1.09109
10.01 -1.0711
10.02 -1.04744
10.03 -1.02086
10.04 -0.991294
10.05 -0.959625
10.06 -0.926233
10.07 -0.891519
10.08 -0.856085
10.09 -0.82027
10.1 -0.784471
10.11 -0.748959
10.12 -0.713991
10.13 -0.679591
10.14 -0.645842
10.15 -0.612621
10.16 -0.57973
10.17 -0.546924
10.18 -0.51386
10.19 -0.48011
10.2 -0.445216
10.21 -0.408878
10.22 -0.370273
10.23 -0.329338
10.24 -0.285543
10.25 -0.238387
10.26 -0.188051
10.27 -0.133812
10.28 -0.0760666
10.29 -0.0148573
10.3 0.0499871
10.31 0.11766
10.32 0.188125
10.33 0.260675
10.34 0.334653
10.35 0.409515
10.36 0.484408
10.37 0.558541
10.38 0.63111
10.39 0.701548
10.4 0.768517
10.41 0.831923
10.42 0.890839
10.43 0.944504
10.44 0.993083
10.45 1.03522
10.46 1.07148
10.47 1.10155
10.48 1.12481
10.49 1.14223
10.5 1.15307
10.51 1.15805
10.52 1.15762
10.53 1.15134
10.54 1.14048
10.55 1.12487
10.56 1.10505
10.57 1.08172
10.58 1.05456
10.59 1.02457
10.6 0.991751
10.61 0.956317
10.62 0.918735
10.63 0.878768
10.64 0.836867
10.65 0.793025
10.66 0.747156
10.67 0.699554
10.68 0.649963
10.69 0.598601
10.7 0.54553
10.71 0.490604
10.72 0.434199
10.73 0.376269
10.74 0.317087
10.75 0.256958
10.76 0.196057
10.77 0.134861
10.78 0.0737571
10.79 0.0132248
10.8 -0.046339
10.81 -0.104123
10.82 -0.159866
10.83 -0.212896
10.84 -0.262463
10.85 -0.30849
10.86 -0.349797
10.87 -0.386436
10.88 -0.417989
10.89 -0.443489
10.9 -0.463541
10.91 -0.477134
10.92 -0.484545
10.93 -0.486034
10.94 -0.480631
10.95 -0.469592
10.96 -0.452476
10.97 -0.429654
10.98 -0.401975
10.99 -0.368901
11 -0.331805
11.01 -0.290881
11.02 -0.246578
11.03 -0.199838
11.04 -0.150912
11.05 -0.100698
11.06 -0.0497845
11.07 0.00119299
11.08 0.0516297
11.09 0.100773
11.1 0.148122
11.11 0.193199
11.12 0.235045
11.13 0.273692
11.14 0.308262
11.15 0.338449
11.16 0.36429
11.17 0.384494
11.18 0.399827
11.19 0.409638
11.2 0.413679
11.21 0.412531
11.22 0.405221
11.23 0.392695
11.24 0.3749
11.25 0.35168
11.26 0.32402
11.27 0.291587
11.28 0.255237
11.29 0.215463
11.3 0.172367
11.31 0.12696
11.32 0.0795109
11.33 0.0306839
11.34 -0.0189168
11.35 -0.0688072
11.36 -0.118435
11.37 -0.167288
11.38 -0.214902
11.39 -0.261049
11.4 -0.305061
11.41 -0.347012
11.42 -0.386597
11.43 -0.423545
11.44 -0.45813
11.45 -0.489957
11.46 -0.519388
11.47 -0.546527
11.48 -0.571278
11.49 -0.594161
11.5 -0.615119
11.51 -0.634473
11.52 -0.652484
11.53 -0.669119
11.54 -0.684745
11.55 -0.699354
11.56 -0.713018
11.57 -0.725838
11.58 -0.737584
11.59 -0.748343
11.6 -0.757893
11.61 -0.76598
11.62 -0.772565
11.63 -0.777087
11.64 -0.779528
11.65 -0.779583
11.66 -0.776723
11.67 -0.77112
11.68 -0.762127
11.69 -0.749833
11.7 -0.734248
11.71 -0.714807
11.72 -0.692148
11.73 -0.665974
11.74 -0.636555
11.75 -0.604384
11.76 -0.569228
11.77 -0.531975
11.78 -0.492835
11.79 -0.452234
11.8 -0.410765
11.81 -0.368805
11.82 -0.326884
11.83 -0.285435
11.84 -0.244944
11.85 -0.205627
11.86 -0.168007
11.87 -0.13217
11.88 -0.0982442
11.89 -0.0665999
11.9 -0.0369117
11.91 -0.00939207
11.92 0.0161585
11.93 0.0400197
11.94 0.062088
11.95 0.0828908
11.96 0.102534
11.97 0.121255
11.98 0.139351
11.99 0.156914
12 0.174171
12.01 0.191197
12.02 0.208015
12.03 0.224628
12.04 0.240891
12.05 0.256681
12.06 0.271789
12.07 0.285825
12.08 0.298646
12.09 0.309704
12.1 0.318731
12.11 0.325496
12.12 0.32919
12.13 0.330015
12.14 0.327366
12.15 0.321046
12.16 0.311272
12.17 0.297247
12.18 0.279695
12.19 0.258467
12.2 0.233618
12.21 0.205842
12.22 0.175029
12.23 0.141981
12.24 0.107137
12.25 0.0709162
12.26 0.0340469
12.27 -0.00294139
12.28 -0.0394596
12.29 -0.0750092
12.3 -0.108849
12.31 -0.140808
12.32 -0.170243
12.33 -0.196874
12.34 -0.220716
12.35 -0.240957
12.36 -0.25815
12.37 -0.271997
12.38 -0.282462
12.39 -0.290025
12.4 -0.294328
12.41 -0.296015
12.42 -0.295219
12.43 -0.292009
12.44 -0.28694
12.45 -0.279977
12.46 -0.271509
12.47 -0.261752
12.48 -0.250706
12.49 -0.238693
12.5 -0.225679
12.51 -0.211764
12.52 -0.197042
12.53 -0.181363
12.54 -0.164892
12.55 -0.147542
12.56 -0.129312
12.57 -0.110316
12.58 -0.0904677
12.59 -0.0699906
12.6 -0.0489942
12.61 -0.0276605
12.62 -0.0062686
12.63 0.0148446
12.64 0.0353452
12.65 0.0548452
12.66 0.0727241
12.67 0.0887735
12.68 0.102223
12.69 0.112731
12.7 0.120045
12.71 0.12311
12.72 0.122296
12.73 0.116887
12.74 0.106711
12.75 0.0921408
12.76 0.0722947
12.77 0.0481655
12.78 0.0197037
12.79 -0.0128945
12.8 -0.0486895
12.81 -0.0875937
12.82 -0.128575
12.83 -0.170955
12.84 -0.214003
12.85 -0.256853
12.86 -0.298592
12.87 -0.338483
12.88 -0.375889
12.89 -0.409608
12.9 -0.439637
12.91 -0.464997
12.92 -0.485361
12.93 -0.500905
12.94 -0.510388
12.95 -0.514835
12.96 -0.51387
12.97 -0.507529
12.98 -0.496678
12.99 -0.480893
13 -0.461259
13.01 -0.438125
13.02 -0.411751
13.03 -0.383059
13.04 -0.352228
13.05 -0.319914
13.06 -0.286547
13.07 -0.252379
13.08 -0.217806
13.09 -0.182985
13.1 -0.148053
13.11 -0.113059
13.12 -0.0779552
13.13 -0.0426697
13.14 -0.00703729
13.15 0.0291374
13.16 0.0659806
13.17 0.103854
13.18 0.142787
13.19 0.182975
13.2 0.224603
13.21 0.267517
13.22 0.311875
13.23 0.357397
13.24 0.40386
13.25 0.451027
13.26 0.498409
13.27 0.545522
13.28 0.591818
13.29 0.636787
13.3 0.679442
13.31 0.719538
13.32 0.756127
13.33 0.78856
