# xPDFsuite Configuration #
[PDF]
wavelength = 0.1
dataformat = Qnm
inputfile = A3-Li-TiO2-12h-p2_041.chi
backgroundfile = A2_Bkg-Li_d22-00000.chi
mode = xray
bgscale = 0.91
composition = TiO2
outputtype = gr
qmaxinst = 21.4
qmin = 0.1
qmax = 21.4
rmax = 100.0
rmin = 0.0
rstep = 0.01
rpoly = 0.9

[Misc]
inputdir = D:/APS_March_2019/Run3/Processed-Data/A3-Li-TiO2-12h-p2/chi-files
savedir = D:/APS_March_2019/Run3/Processed-Data/A3-Li-TiO2-12h-p2
backgroundfilefull = D:/APS_March_2019/Calib-Bkg/A2_Bkg-Li_d22-00000.chi

#### start data
#S 1
#L r($\AA$)  G($\AA^{-2}$)
0 0
0.01 -0.000166847
0.02 -0.000326436
0.03 -0.000471049
0.04 -0.000593443
0.05 -0.00069094
0.06 -0.000753892
0.07 -0.000784062
0.08 -0.000778856
0.09 -0.000735543
0.1 -0.000660718
0.11 -0.000552952
0.12 -0.000420079
0.13 -0.000268613
0.14 -0.00010501
0.15 5.97375e-05
0.16 0.000213821
0.17 0.000344174
0.18 0.00043865
0.19 0.000469636
0.2 0.000428909
0.21 0.000286293
0.22 1.44128e-05
0.23 -0.000398632
0.24 -0.00101538
0.25 -0.00183588
0.26 -0.00290215
0.27 -0.00426276
0.28 -0.00590673
0.29 -0.00790713
0.3 -0.010241
0.31 -0.0129107
0.32 -0.0159431
0.33 -0.0192564
0.34 -0.0228331
0.35 -0.0265774
0.36 -0.0303802
0.37 -0.0340877
0.38 -0.037546
0.39 -0.0405087
0.4 -0.0427202
0.41 -0.0439963
0.42 -0.0437745
0.43 -0.041969
0.44 -0.038111
0.45 -0.0317124
0.46 -0.0227328
0.47 -0.0103107
0.48 0.00546758
0.49 0.0249284
0.5 0.0486942
0.51 0.0763066
0.52 0.10841
0.53 0.144637
0.54 0.184682
0.55 0.228825
0.56 0.276001
0.57 0.325989
0.58 0.377995
0.59 0.43108
0.6 0.484328
0.61 0.536654
0.62 0.586798
0.63 0.633367
0.64 0.675558
0.65 0.711049
0.66 0.739463
0.67 0.759368
0.68 0.768817
0.69 0.768263
0.7 0.75521
0.71 0.730133
0.72 0.692933
0.73 0.641781
0.74 0.578995
0.75 0.50356
0.76 0.416772
0.77 0.320443
0.78 0.214256
0.79 0.101513
0.8 -0.0165758
0.81 -0.1379
0.82 -0.260098
0.83 -0.38068
0.84 -0.497585
0.85 -0.608368
0.86 -0.710222
0.87 -0.802342
0.88 -0.881044
0.89 -0.946136
0.9 -0.996496
0.91 -1.02936
0.92 -1.04687
0.93 -1.04687
0.94 -1.03073
0.95 -1.00017
0.96 -0.954027
0.97 -0.89655
0.98 -0.828547
0.99 -0.752501
1 -0.671526
1.01 -0.587796
1.02 -0.504515
1.03 -0.424485
1.04 -0.350803
1.05 -0.28511
1.06 -0.231435
1.07 -0.190366
1.08 -0.163621
1.09 -0.15399
1.1 -0.159725
1.11 -0.183307
1.12 -0.223145
1.13 -0.277795
1.14 -0.348122
1.15 -0.429864
1.16 -0.522109
1.17 -0.622001
1.18 -0.726324
1.19 -0.832508
1.2 -0.937239
1.21 -1.03737
1.22 -1.12964
1.23 -1.21237
1.24 -1.28101
1.25 -1.33533
1.26 -1.37332
1.27 -1.3923
1.28 -1.39421
1.29 -1.37629
1.3 -1.34068
1.31 -1.28875
1.32 -1.21988
1.33 -1.13858
1.34 -1.04573
1.35 -0.944501
1.36 -0.838199
1.37 -0.729378
1.38 -0.621492
1.39 -0.517682
1.4 -0.421065
1.41 -0.333334
1.42 -0.258916
1.43 -0.197781
1.44 -0.152021
1.45 -0.123762
1.46 -0.11123
1.47 -0.116986
1.48 -0.138628
1.49 -0.175037
1.5 -0.226362
1.51 -0.288569
1.52 -0.360787
1.53 -0.439955
1.54 -0.523219
1.55 -0.608171
1.56 -0.691899
1.57 -0.771618
1.58 -0.844783
1.59 -0.910024
1.6 -0.963528
1.61 -1.00568
1.62 -1.03461
1.63 -1.04888
1.64 -1.04998
1.65 -1.03571
1.66 -1.00833
1.67 -0.968495
1.68 -0.916142
1.69 -0.854347
1.7 -0.78338
1.71 -0.705538
1.72 -0.622691
1.73 -0.535915
1.74 -0.447362
1.75 -0.358275
1.76 -0.26994
1.77 -0.183205
1.78 -0.0992921
1.79 -0.018189
1.8 0.0596479
1.81 0.134126
1.82 0.205839
1.83 0.274747
1.84 0.341756
1.85 0.407428
1.86 0.472368
1.87 0.537272
1.88 0.602726
1.89 0.669097
1.9 0.736573
1.91 0.805323
1.92 0.874921
1.93 0.944939
1.94 1.01457
1.95 1.08293
1.96 1.14828
1.97 1.20973
1.98 1.26532
1.99 1.31315
2 1.35248
2.01 1.3797
2.02 1.395
2.03 1.39648
2.04 1.38189
2.05 1.35247
2.06 1.3052
2.07 1.2417
2.08 1.16239
2.09 1.06603
2.1 0.956245
2.11 0.832832
2.12 0.698412
2.13 0.555711
2.14 0.406076
2.15 0.253286
2.16 0.0998481
2.17 -0.051258
2.18 -0.197703
2.19 -0.335436
2.2 -0.463429
2.21 -0.578943
2.22 -0.679367
2.23 -0.765225
2.24 -0.832919
2.25 -0.884024
2.26 -0.918432
2.27 -0.934868
2.28 -0.936808
2.29 -0.923623
2.3 -0.898077
2.31 -0.862645
2.32 -0.818298
2.33 -0.768852
2.34 -0.716296
2.35 -0.663281
2.36 -0.612039
2.37 -0.565571
2.38 -0.524996
2.39 -0.492441
2.4 -0.469599
2.41 -0.456218
2.42 -0.4546
2.43 -0.463325
2.44 -0.482321
2.45 -0.511719
2.46 -0.549073
2.47 -0.59408
2.48 -0.644451
2.49 -0.698294
2.5 -0.753888
2.51 -0.809022
2.52 -0.86156
2.53 -0.909619
2.54 -0.951967
2.55 -0.985579
2.56 -1.01075
2.57 -1.02567
2.58 -1.0294
2.59 -1.02281
2.6 -1.00385
2.61 -0.974515
2.62 -0.934899
2.63 -0.885105
2.64 -0.827384
2.65 -0.761711
2.66 -0.690115
2.67 -0.613916
2.68 -0.534
2.69 -0.452146
2.7 -0.369336
2.71 -0.286694
2.72 -0.205034
2.73 -0.125373
2.74 -0.0478738
2.75 0.0269131
2.76 0.0988368
2.77 0.168212
2.78 0.234738
2.79 0.299153
2.8 0.361703
2.81 0.422742
2.82 0.482858
2.83 0.542326
2.84 0.601536
2.85 0.660689
2.86 0.719864
2.87 0.77899
2.88 0.837791
2.89 0.895865
2.9 0.952707
2.91 1.00725
2.92 1.05904
2.93 1.10674
2.94 1.1493
2.95 1.1862
2.96 1.21499
2.97 1.236
2.98 1.24769
2.99 1.24881
3 1.23995
3.01 1.21879
3.02 1.18659
3.03 1.1431
3.04 1.08751
3.05 1.02191
3.06 0.945542
3.07 0.860169
3.08 0.767126
3.09 0.666707
3.1 0.561436
3.11 0.452275
3.12 0.34095
3.13 0.229069
3.14 0.118337
3.15 0.00998683
3.16 -0.0943855
3.17 -0.193371
3.18 -0.28654
3.19 -0.371721
3.2 -0.449292
3.21 -0.518406
3.22 -0.578004
3.23 -0.629136
3.24 -0.670373
3.25 -0.702731
3.26 -0.72654
3.27 -0.740998
3.28 -0.74788
3.29 -0.746602
3.3 -0.737977
3.31 -0.722896
3.32 -0.700589
3.33 -0.672676
3.34 -0.638909
3.35 -0.599579
3.36 -0.555497
3.37 -0.50598
3.38 -0.452073
3.39 -0.393723
3.4 -0.330902
3.41 -0.264394
3.42 -0.193887
3.43 -0.120168
3.44 -0.0436396
3.45 0.0354383
3.46 0.116109
3.47 0.197824
3.48 0.279684
3.49 0.360832
3.5 0.439993
3.51 0.51647
3.52 0.588824
3.53 0.655928
3.54 0.717267
3.55 0.770375
3.56 0.815658
3.57 0.851639
3.58 0.877124
3.59 0.892783
3.6 0.896372
3.61 0.889159
3.62 0.870925
3.63 0.840833
3.64 0.800923
3.65 0.750373
3.66 0.690812
3.67 0.62346
3.68 0.548377
3.69 0.467965
3.7 0.382907
3.71 0.294702
3.72 0.204821
3.73 0.114429
3.74 0.0248072
3.75 -0.0628689
3.76 -0.147501
3.77 -0.228641
3.78 -0.304854
3.79 -0.376315
3.8 -0.442526
3.81 -0.502898
3.82 -0.558194
3.83 -0.607753
3.84 -0.65236
3.85 -0.69244
3.86 -0.727862
3.87 -0.759786
3.88 -0.788254
3.89 -0.813895
3.9 -0.837298
3.91 -0.858449
3.92 -0.878018
3.93 -0.896032
3.94 -0.912581
3.95 -0.927819
3.96 -0.941372
3.97 -0.953321
3.98 -0.963331
3.99 -0.970963
4 -0.976208
4.01 -0.978291
4.02 -0.977237
4.03 -0.972793
4.04 -0.964338
4.05 -0.95235
4.06 -0.936324
4.07 -0.916602
4.08 -0.89359
4.09 -0.86711
4.1 -0.838188
4.11 -0.807133
4.12 -0.77465
4.13 -0.741536
4.14 -0.70856
4.15 -0.676462
4.16 -0.646059
4.17 -0.618193
4.18 -0.593158
4.19 -0.572059
4.2 -0.554814
4.21 -0.541721
4.22 -0.53327
4.23 -0.528713
4.24 -0.528315
4.25 -0.53129
4.26 -0.536911
4.27 -0.544681
4.28 -0.553363
4.29 -0.561994
4.3 -0.569434
4.31 -0.574756
4.32 -0.576156
4.33 -0.57327
4.34 -0.5647
4.35 -0.549339
4.36 -0.527244
4.37 -0.496493
4.38 -0.457884
4.39 -0.410993
4.4 -0.355216
4.41 -0.292007
4.42 -0.220743
4.43 -0.142869
4.44 -0.0593805
4.45 0.0292793
4.46 0.121151
4.47 0.215263
4.48 0.310101
4.49 0.404314
4.5 0.496126
4.51 0.584634
4.52 0.668215
4.53 0.74559
4.54 0.816458
4.55 0.878538
4.56 0.932474
4.57 0.977368
4.58 1.01233
4.59 1.03854
4.6 1.05463
4.61 1.06195
4.62 1.06096
4.63 1.05134
4.64 1.03507
4.65 1.01209
4.66 0.983719
4.67 0.95114
4.68 0.914735
4.69 0.876097
4.7 0.835953
4.71 0.795271
4.72 0.754889
4.73 0.715785
4.74 0.67844
4.75 0.643575
4.76 0.611861
4.77 0.583312
4.78 0.558855
4.79 0.538232
4.8 0.521631
4.81 0.509526
4.82 0.501262
4.83 0.497313
4.84 0.497208
4.85 0.500592
4.86 0.507712
4.87 0.517656
4.88 0.530382
4.89 0.545401
4.9 0.562104
4.91 0.580277
4.92 0.599152
4.93 0.618246
4.94 0.636952
4.95 0.654759
4.96 0.670797
4.97 0.684686
4.98 0.695754
4.99 0.703095
5 0.706653
5.01 0.705223
5.02 0.698728
5.03 0.686868
5.04 0.668465
5.05 0.644269
5.06 0.613345
5.07 0.575884
5.08 0.532427
5.09 0.481974
5.1 0.426054
5.11 0.364562
5.12 0.298025
5.13 0.227597
5.14 0.153428
5.15 0.0769318
5.16 -0.00107592
5.17 -0.0796067
5.18 -0.157628
5.19 -0.233904
5.2 -0.307597
5.21 -0.377802
5.22 -0.443081
5.23 -0.503401
5.24 -0.557342
5.25 -0.604676
5.26 -0.645405
5.27 -0.678019
5.28 -0.703787
5.29 -0.722017
5.3 -0.732953
5.31 -0.737627
5.32 -0.735318
5.33 -0.727735
5.34 -0.7152
5.35 -0.698286
5.36 -0.678273
5.37 -0.655543
5.38 -0.631234
5.39 -0.60609
5.4 -0.58085
5.41 -0.55617
5.42 -0.532762
5.43 -0.511034
5.44 -0.491267
5.45 -0.474087
5.46 -0.459216
5.47 -0.446969
5.48 -0.437224
5.49 -0.429618
5.5 -0.424331
5.51 -0.420668
5.52 -0.418433
5.53 -0.417283
5.54 -0.41675
5.55 -0.416536
5.56 -0.416271
5.57 -0.415672
5.58 -0.414448
5.59 -0.412517
5.6 -0.409651
5.61 -0.40589
5.62 -0.401283
5.63 -0.395811
5.64 -0.389746
5.65 -0.38321
5.66 -0.376445
5.67 -0.369681
5.68 -0.363193
5.69 -0.357147
5.7 -0.351775
5.71 -0.347242
5.72 -0.343544
5.73 -0.340871
5.74 -0.339032
5.75 -0.337946
5.76 -0.33745
5.77 -0.337217
5.78 -0.336918
5.79 -0.336164
5.8 -0.334541
5.81 -0.33141
5.82 -0.326535
5.83 -0.319158
5.84 -0.308932
5.85 -0.295635
5.86 -0.278256
5.87 -0.257191
5.88 -0.23181
5.89 -0.201978
5.9 -0.168102
5.91 -0.129442
5.92 -0.0869342
5.93 -0.0406116
5.94 0.00930605
5.95 0.0619352
5.96 0.117117
5.97 0.173928
5.98 0.231723
5.99 0.289801
6 0.347413
6.01 0.403686
6.02 0.457965
6.03 0.509688
6.04 0.557681
6.05 0.601989
6.06 0.641657
6.07 0.676324
6.08 0.706148
6.09 0.729827
6.1 0.748299
6.11 0.761108
6.12 0.768137
6.13 0.770206
6.14 0.766694
6.15 0.758655
6.16 0.746363
6.17 0.729946
6.18 0.710447
6.19 0.687976
6.2 0.663343
6.21 0.637139
6.22 0.609772
6.23 0.581944
6.24 0.554133
6.25 0.526831
6.26 0.50039
6.27 0.475436
6.28 0.452018
6.29 0.43054
6.3 0.411242
6.31 0.394009
6.32 0.379307
6.33 0.366771
6.34 0.356433
6.35 0.348312
6.36 0.341956
6.37 0.337403
6.38 0.33421
6.39 0.332075
6.4 0.330763
6.41 0.329819
6.42 0.328916
6.43 0.327685
6.44 0.325825
6.45 0.322829
6.46 0.318591
6.47 0.312701
6.48 0.304909
6.49 0.29523
6.5 0.283123
6.51 0.268889
6.52 0.252375
6.53 0.233497
6.54 0.212637
6.55 0.189631
6.56 0.164931
6.57 0.138786
6.58 0.111383
6.59 0.0832373
6.6 0.0546532
6.61 0.0260681
6.62 -0.00213388
6.63 -0.0294118
6.64 -0.0555306
6.65 -0.0799657
6.66 -0.102381
6.67 -0.122683
6.68 -0.140124
6.69 -0.154998
6.7 -0.166964
6.71 -0.17584
6.72 -0.18198
6.73 -0.184959
6.74 -0.18531
6.75 -0.183157
6.76 -0.178548
6.77 -0.172103
6.78 -0.16391
6.79 -0.154483
6.8 -0.144228
6.81 -0.133476
6.82 -0.122689
6.83 -0.112263
6.84 -0.102564
6.85 -0.093833
6.86 -0.0866225
6.87 -0.0809018
6.88 -0.0770093
6.89 -0.0751344
6.9 -0.0751413
6.91 -0.0774298
6.92 -0.0816613
6.93 -0.0878501
6.94 -0.0960207
6.95 -0.105774
6.96 -0.117166
6.97 -0.129834
6.98 -0.143545
6.99 -0.158168
7 -0.17333
7.01 -0.188848
7.02 -0.204458
7.03 -0.219942
7.04 -0.235017
7.05 -0.249554
7.06 -0.263297
7.07 -0.276051
7.08 -0.287759
7.09 -0.298023
7.1 -0.306913
7.11 -0.314201
7.12 -0.319636
7.13 -0.323311
7.14 -0.324758
7.15 -0.324075
7.16 -0.321115
7.17 -0.315456
7.18 -0.307357
7.19 -0.296327
7.2 -0.282424
7.21 -0.265699
7.22 -0.245575
7.23 -0.222573
7.24 -0.196351
7.25 -0.166985
7.26 -0.134844
7.27 -0.0995022
7.28 -0.0616854
7.29 -0.0214449
7.3 0.0209913
7.31 0.065037
7.32 0.110524
7.33 0.156827
7.34 0.203499
7.35 0.250015
7.36 0.295907
7.37 0.340517
7.38 0.383436
7.39 0.424277
7.4 0.462227
7.41 0.497385
7.42 0.529084
7.43 0.557184
7.44 0.581855
7.45 0.602291
7.46 0.619288
7.47 0.632647
7.48 0.642515
7.49 0.649548
7.5 0.653635
7.51 0.655607
7.52 0.655848
7.53 0.654776
7.54 0.653047
7.55 0.651114
7.56 0.649477
7.57 0.648543
7.58 0.648822
7.59 0.65041
7.6 0.653689
7.61 0.658683
7.62 0.665267
7.63 0.673606
7.64 0.683169
7.65 0.693733
7.66 0.704841
7.67 0.715951
7.68 0.726364
7.69 0.735537
7.7 0.742718
7.71 0.747019
7.72 0.748142
7.73 0.744791
7.74 0.736826
7.75 0.723717
7.76 0.704353
7.77 0.67931
7.78 0.647532
7.79 0.609314
7.8 0.565019
7.81 0.513771
7.82 0.457015
7.83 0.394566
7.84 0.327047
7.85 0.25553
7.86 0.180044
7.87 0.10204
7.88 0.0221771
7.89 -0.0586737
7.9 -0.139563
7.91 -0.219504
7.92 -0.29777
7.93 -0.373568
7.94 -0.44586
7.95 -0.51453
7.96 -0.578447
7.97 -0.637529
7.98 -0.691646
7.99 -0.739782
8 -0.782797
8.01 -0.820073
8.02 -0.851869
8.03 -0.878837
8.04 -0.900248
8.05 -0.917428
8.06 -0.930359
8.07 -0.939374
8.08 -0.945307
8.09 -0.94807
8.1 -0.948514
8.11 -0.946941
8.12 -0.943583
8.13 -0.938974
8.14 -0.933199
8.15 -0.926564
8.16 -0.919219
8.17 -0.911155
8.18 -0.902499
8.19 -0.893128
8.2 -0.882977
8.21 -0.87198
8.22 -0.859764
8.23 -0.846347
8.24 -0.831385
8.25 -0.814626
8.26 -0.796051
8.27 -0.775053
8.28 -0.751809
8.29 -0.726039
8.3 -0.697448
8.31 -0.666311
8.32 -0.632151
8.33 -0.595295
8.34 -0.555808
8.35 -0.513499
8.36 -0.468935
8.37 -0.422023
8.38 -0.373153
8.39 -0.322701
8.4 -0.27076
8.41 -0.217919
8.42 -0.164457
8.43 -0.11078
8.44 -0.0572657
8.45 -0.00440557
8.46 0.0475345
8.47 0.0981278
8.48 0.146943
8.49 0.193897
8.5 0.238337
8.51 0.280317
8.52 0.319603
8.53 0.355743
8.54 0.389069
8.55 0.41908
8.56 0.445992
8.57 0.469939
8.58 0.490517
8.59 0.508362
8.6 0.523278
8.61 0.535497
8.62 0.545424
8.63 0.552798
8.64 0.558279
8.65 0.561906
8.66 0.563852
8.67 0.564497
8.68 0.563811
8.69 0.562144
8.7 0.559606
8.71 0.55626
8.72 0.552301
8.73 0.547702
8.74 0.542551
8.75 0.536864
8.76 0.530541
8.77 0.523638
8.78 0.51601
8.79 0.50761
8.8 0.498417
8.81 0.488177
8.82 0.476998
8.83 0.464725
8.84 0.4513
8.85 0.436831
8.86 0.42113
8.87 0.404434
8.88 0.386779
8.89 0.368248
8.9 0.34911
8.91 0.329498
8.92 0.309706
8.93 0.289995
8.94 0.270711
8.95 0.252091
8.96 0.234571
8.97 0.21842
8.98 0.203847
8.99 0.191474
9 0.181182
9.01 0.173425
9.02 0.168375
9.03 0.165879
9.04 0.166535
9.05 0.169835
9.06 0.175897
9.07 0.18472
9.08 0.1958
9.09 0.209265
9.1 0.224547
9.11 0.24135
9.12 0.259427
9.13 0.278235
9.14 0.297454
9.15 0.316656
9.16 0.335483
9.17 0.353462
9.18 0.370415
9.19 0.385923
9.2 0.399768
9.21 0.411926
9.22 0.421879
9.23 0.429939
9.24 0.435919
9.25 0.439785
9.26 0.441844
9.27 0.441889
9.28 0.440327
9.29 0.43727
9.3 0.432782
9.31 0.427224
9.32 0.420608
9.33 0.413176
9.34 0.405063
9.35 0.39627
9.36 0.386951
9.37 0.377044
9.38 0.366532
9.39 0.355392
9.4 0.343353
9.41 0.330426
9.42 0.31634
9.43 0.300867
9.44 0.283961
9.45 0.265103
9.46 0.244383
9.47 0.221542
9.48 0.196283
9.49 0.168819
9.5 0.138728
9.51 0.106279
9.52 0.0715502
9.53 0.0343979
9.54 -0.00463876
9.55 -0.0455584
9.56 -0.0879575
9.57 -0.13143
9.58 -0.175732
9.59 -0.220328
9.6 -0.264821
9.61 -0.308763
9.62 -0.35183
9.63 -0.393381
9.64 -0.433305
9.65 -0.471182
9.66 -0.506623
9.67 -0.53973
9.68 -0.569931
9.69 -0.597485
9.7 -0.622355
9.71 -0.644316
9.72 -0.663885
9.73 -0.68089
9.74 -0.695713
9.75 -0.708674
9.76 -0.719765
9.77 -0.729553
9.78 -0.738164
9.79 -0.745886
9.8 -0.753013
9.81 -0.759656
9.82 -0.766054
9.83 -0.772298
9.84 -0.778448
9.85 -0.784525
9.86 -0.790469
9.87 -0.796207
9.88 -0.801602
9.89 -0.806436
9.9 -0.810596
9.91 -0.813736
9.92 -0.81571
9.93 -0.816335
9.94 -0.815166
9.95 -0.812299
9.96 -0.807342
9.97 -0.800238
9.98 -0.791077
9.99 -0.779386
10 -0.765624
10.01 -0.749644
10.02 -0.73152
10.03 -0.711611
10.04 -0.689779
10.05 -0.666503
10.06 -0.641933
10.07 -0.616229
10.08 -0.589753
10.09 -0.562612
10.1 -0.535066
10.11 -0.507273
10.12 -0.479338
10.13 -0.45136
10.14 -0.423365
10.15 -0.395333
10.16 -0.367208
10.17 -0.338838
10.18 -0.310117
10.19 -0.280813
10.2 -0.250702
10.21 -0.219654
10.22 -0.187206
10.23 -0.153354
10.24 -0.117806
10.25 -0.08028
10.26 -0.0408895
10.27 0.000784892
10.28 0.0445111
10.29 0.0902649
10.3 0.138145
10.31 0.187676
10.32 0.238822
10.33 0.291152
10.34 0.344254
10.35 0.39775
10.36 0.451109
10.37 0.503775
10.38 0.555193
10.39 0.604974
10.4 0.65212
10.41 0.696561
10.42 0.737576
10.43 0.774547
10.44 0.807558
10.45 0.835488
10.46 0.858709
10.47 0.876909
10.48 0.889495
10.49 0.897192
10.5 0.899284
10.51 0.896333
10.52 0.88866
10.53 0.875836
10.54 0.858964
10.55 0.837891
10.56 0.813146
10.57 0.785396
10.58 0.754507
10.59 0.72145
10.6 0.68643
10.61 0.649839
10.62 0.612201
10.63 0.57372
10.64 0.534832
10.65 0.495797
10.66 0.45687
10.67 0.418233
10.68 0.38012
10.69 0.342615
10.7 0.305807
10.71 0.269874
10.72 0.234734
10.73 0.200536
10.74 0.167266
10.75 0.134887
10.76 0.103601
10.77 0.0732552
10.78 0.044
10.79 0.0159054
10.8 -0.0110707
10.81 -0.0365823
10.82 -0.0607363
10.83 -0.0833084
10.84 -0.104035
10.85 -0.122981
10.86 -0.139624
10.87 -0.154026
10.88 -0.165991
10.89 -0.175033
10.9 -0.181408
10.91 -0.184558
10.92 -0.184551
10.93 -0.181449
10.94 -0.174647
10.95 -0.164737
10.96 -0.151389
10.97 -0.134735
10.98 -0.115204
10.99 -0.0924153
11 -0.0671638
11.01 -0.0395552
11.02 -0.00988029
11.03 0.0212445
11.04 0.0535716
11.05 0.0864658
11.06 0.119438
11.07 0.151899
11.08 0.183396
11.09 0.213177
11.1 0.240821
11.11 0.265902
11.12 0.287458
11.13 0.305607
11.14 0.319498
11.15 0.328891
11.16 0.333904
11.17 0.333347
11.18 0.328086
11.19 0.317617
11.2 0.301861
11.21 0.281496
11.22 0.255867
11.23 0.225977
11.24 0.191991
11.25 0.154045
11.26 0.113094
11.27 0.0692084
11.28 0.023208
11.29 -0.0243422
11.3 -0.0730053
11.31 -0.12207
11.32 -0.171013
11.33 -0.219304
11.34 -0.266545
11.35 -0.312031
11.36 -0.355699
11.37 -0.397048
11.38 -0.435808
11.39 -0.472082
11.4 -0.50525
11.41 -0.535749
11.42 -0.563451
11.43 -0.588275
11.44 -0.6107
11.45 -0.630499
11.46 -0.648151
11.47 -0.663855
11.48 -0.677633
11.49 -0.689969
11.5 -0.700868
11.51 -0.710597
11.52 -0.719348
11.53 -0.727069
11.54 -0.733987
11.55 -0.740024
11.56 -0.74515
11.57 -0.749383
11.58 -0.752389
11.59 -0.75422
11.6 -0.754602
11.61 -0.753253
11.62 -0.750174
11.63 -0.744809
11.64 -0.737233
11.65 -0.727225
11.66 -0.71438
11.67 -0.698982
11.68 -0.68057
11.69 -0.659356
11.7 -0.635475
11.71 -0.608622
11.72 -0.57942
11.73 -0.547794
11.74 -0.514073
11.75 -0.478706
11.76 -0.441726
11.77 -0.403767
11.78 -0.365098
11.79 -0.326091
11.8 -0.287114
11.81 -0.248556
11.82 -0.210663
11.83 -0.173717
11.84 -0.138034
11.85 -0.103608
11.86 -0.0707685
11.87 -0.0394317
11.88 -0.00957897
11.89 0.0186333
11.9 0.045536
11.91 0.0710814
11.92 0.0954761
11.93 0.118947
11.94 0.141506
11.95 0.163462
11.96 0.184895
11.97 0.205917
11.98 0.22664
11.99 0.24704
12 0.267148
12.01 0.286875
12.02 0.306063
12.03 0.324615
12.04 0.342172
12.05 0.358573
12.06 0.373534
12.07 0.386526
12.08 0.397524
12.09 0.40589
12.1 0.411456
12.11 0.414106
12.12 0.413034
12.13 0.40867
12.14 0.400502
12.15 0.388489
12.16 0.372999
12.17 0.353399
12.18 0.33052
12.19 0.304346
12.2 0.275052
12.21 0.243341
12.22 0.209243
12.23 0.173499
12.24 0.136543
12.25 0.0988086
12.26 0.0608781
12.27 0.0232522
12.28 -0.0136187
12.29 -0.0493583
12.3 -0.0833451
12.31 -0.115538
12.32 -0.145435
12.33 -0.17287
12.34 -0.19792
12.35 -0.219961
12.36 -0.239499
12.37 -0.256325
12.38 -0.270436
12.39 -0.282228
12.4 -0.291413
12.41 -0.298491
12.42 -0.303542
12.43 -0.306573
12.44 -0.307994
12.45 -0.307694
12.46 -0.305942
12.47 -0.302854
12.48 -0.298321
12.49 -0.292609
12.5 -0.285587
12.51 -0.277316
12.52 -0.267886
12.53 -0.25706
12.54 -0.245083
12.55 -0.231853
12.56 -0.217394
12.57 -0.201896
12.58 -0.185269
12.59 -0.167822
12.6 -0.149694
12.61 -0.131092
12.62 -0.11233
12.63 -0.0937305
12.64 -0.0756216
12.65 -0.0583554
12.66 -0.0424656
12.67 -0.0281188
12.68 -0.0159355
12.69 -0.00615785
12.7 0.00105435
12.71 0.00492599
12.72 0.00581788
12.73 0.00326214
12.74 -0.00277754
12.75 -0.0119378
12.76 -0.0247197
12.77 -0.0403261
12.78 -0.0586609
12.79 -0.0794442
12.8 -0.101966
12.81 -0.125959
12.82 -0.150696
12.83 -0.175626
12.84 -0.200104
12.85 -0.223634
12.86 -0.24546
12.87 -0.265167
12.88 -0.282398
12.89 -0.296295
12.9 -0.307088
12.91 -0.314168
12.92 -0.317478
12.93 -0.317317
12.94 -0.313009
12.95 -0.305432
12.96 -0.294528
12.97 -0.280521
12.98 -0.264096
12.99 -0.245263
13 -0.224771
13.01 -0.202994
13.02 -0.180298
13.03 -0.157192
13.04 -0.134014
13.05 -0.111086
13.06 -0.0886431
13.07 -0.0669573
13.08 -0.0460144
13.09 -0.0259396
13.1 -0.00665492
13.11 0.0119989
13.12 0.0300952
13.13 0.0479436
13.14 0.0657738
13.15 0.0838729
13.16 0.102466
13.17 0.121955
13.18 0.142438
13.19 0.164151
13.2 0.187325
13.21 0.211839
13.22 0.237912
