# xPDFsuite Configuration #
[PDF]
wavelength = 0.1
dataformat = Qnm
inputfile = A3-Li-TiO2-12h-p2_021.chi
backgroundfile = A2_Bkg-Li_d22-00000.chi
mode = xray
bgscale = 0.91
composition = TiO2
outputtype = gr
qmaxinst = 21.4
qmin = 0.1
qmax = 21.4
rmax = 100.0
rmin = 0.0
rstep = 0.01
rpoly = 0.9

[Misc]
inputdir = D:/APS_March_2019/Run3/Processed-Data/A3-Li-TiO2-12h-p2/chi-files
savedir = D:/APS_March_2019/Run3/Processed-Data/A3-Li-TiO2-12h-p2
backgroundfilefull = D:/APS_March_2019/Calib-Bkg/A2_Bkg-Li_d22-00000.chi

#### start data
#S 1
#L r($\AA$)  G($\AA^{-2}$)
0 0
0.01 -0.000487729
0.02 -0.000954227
0.03 -0.00137692
0.04 -0.00173463
0.05 -0.00201957
0.06 -0.00220363
0.07 -0.00229212
0.08 -0.0022777
0.09 -0.0021528
0.1 -0.00193683
0.11 -0.00162586
0.12 -0.00124219
0.13 -0.00080346
0.14 -0.000324892
0.15 0.000165998
0.16 0.000645546
0.17 0.00108868
0.18 0.00147497
0.19 0.00176394
0.2 0.00194902
0.21 0.00199608
0.22 0.00188066
0.23 0.00160047
0.24 0.00110037
0.25 0.000395772
0.26 -0.000540433
0.27 -0.00173862
0.28 -0.00317761
0.29 -0.00490923
0.3 -0.00690892
0.31 -0.00917751
0.32 -0.0117413
0.33 -0.0145443
0.34 -0.0175942
0.35 -0.020839
0.36 -0.0242193
0.37 -0.0276758
0.38 -0.0311061
0.39 -0.0343864
0.4 -0.0373678
0.41 -0.0399241
0.42 -0.0417326
0.43 -0.0426935
0.44 -0.0424945
0.45 -0.0407851
0.46 -0.0374697
0.47 -0.0319115
0.48 -0.0240665
0.49 -0.0136007
0.5 7.66844e-05
0.51 0.0167685
0.52 0.0371733
0.53 0.0611971
0.54 0.0888009
0.55 0.120583
0.56 0.155804
0.57 0.194696
0.58 0.236872
0.59 0.281672
0.6 0.329022
0.61 0.377821
0.62 0.427416
0.63 0.476868
0.64 0.525264
0.65 0.571158
0.66 0.613742
0.67 0.651745
0.68 0.683468
0.69 0.708636
0.7 0.724969
0.71 0.732202
0.72 0.729674
0.73 0.715172
0.74 0.690019
0.75 0.652489
0.76 0.602992
0.77 0.542579
0.78 0.469611
0.79 0.387016
0.8 0.294866
0.81 0.194434
0.82 0.0880102
0.83 -0.023527
0.84 -0.137491
0.85 -0.251957
0.86 -0.364589
0.87 -0.473551
0.88 -0.575808
0.89 -0.669967
0.9 -0.754233
0.91 -0.825492
0.92 -0.884304
0.93 -0.927762
0.94 -0.955955
0.95 -0.969441
0.96 -0.965642
0.97 -0.947959
0.98 -0.915817
0.99 -0.870689
1 -0.815393
1.01 -0.750234
1.02 -0.679088
1.03 -0.60404
1.04 -0.527779
1.05 -0.452991
1.06 -0.382979
1.07 -0.319754
1.08 -0.265696
1.09 -0.224087
1.1 -0.194834
1.11 -0.181208
1.12 -0.182992
1.13 -0.199903
1.14 -0.234214
1.15 -0.28245
1.16 -0.345029
1.17 -0.419903
1.18 -0.504062
1.19 -0.596556
1.2 -0.693204
1.21 -0.791403
1.22 -0.887892
1.23 -0.979978
1.24 -1.0634
1.25 -1.13649
1.26 -1.1965
1.27 -1.23994
1.28 -1.26744
1.29 -1.27521
1.3 -1.26434
1.31 -1.23528
1.32 -1.18608
1.33 -1.12103
1.34 -1.03991
1.35 -0.945644
1.36 -0.841672
1.37 -0.729592
1.38 -0.614028
1.39 -0.498076
1.4 -0.3854
1.41 -0.278779
1.42 -0.183085
1.43 -0.0995822
1.44 -0.0312988
1.45 0.0185313
1.46 0.0508657
1.47 0.061815
1.48 0.0532632
1.49 0.0256993
1.5 -0.0221406
1.51 -0.0857502
1.52 -0.165074
1.53 -0.256685
1.54 -0.357168
1.55 -0.464466
1.56 -0.574201
1.57 -0.683202
1.58 -0.787999
1.59 -0.886124
1.6 -0.972865
1.61 -1.04758
1.62 -1.10746
1.63 -1.15004
1.64 -1.17644
1.65 -1.18327
1.66 -1.17284
1.67 -1.14556
1.68 -1.10082
1.69 -1.04253
1.7 -0.970718
1.71 -0.888462
1.72 -0.798373
1.73 -0.701905
1.74 -0.602392
1.75 -0.501804
1.76 -0.402315
1.77 -0.305476
1.78 -0.213587
1.79 -0.126862
1.8 -0.0464143
1.81 0.0272468
1.82 0.0949921
1.83 0.156292
1.84 0.212791
1.85 0.265403
1.86 0.315189
1.87 0.363835
1.88 0.4127
1.89 0.46312
1.9 0.516173
1.91 0.573334
1.92 0.634592
1.93 0.700771
1.94 0.771597
1.95 0.846244
1.96 0.924382
1.97 1.00408
1.98 1.08376
1.99 1.16124
2 1.23466
2.01 1.30038
2.02 1.35702
2.03 1.40172
2.04 1.43106
2.05 1.44501
2.06 1.43905
2.07 1.41375
2.08 1.36845
2.09 1.30025
2.1 1.21281
2.11 1.10445
2.12 0.977722
2.13 0.835633
2.14 0.678297
2.15 0.511232
2.16 0.336826
2.17 0.158901
2.18 -0.0187233
2.19 -0.191533
2.2 -0.356633
2.21 -0.510096
2.22 -0.647886
2.23 -0.769353
2.24 -0.869192
2.25 -0.94825
2.26 -1.00547
2.27 -1.03818
2.28 -1.0503
2.29 -1.04002
2.3 -1.01055
2.31 -0.964914
2.32 -0.903562
2.33 -0.832104
2.34 -0.752865
2.35 -0.669665
2.36 -0.586115
2.37 -0.506223
2.38 -0.432524
2.39 -0.368387
2.4 -0.316795
2.41 -0.278139
2.42 -0.256361
2.43 -0.250086
2.44 -0.259841
2.45 -0.286571
2.46 -0.326969
2.47 -0.381399
2.48 -0.44664
2.49 -0.520072
2.5 -0.599791
2.51 -0.682001
2.52 -0.763882
2.53 -0.842383
2.54 -0.915202
2.55 -0.978085
2.56 -1.03059
2.57 -1.06985
2.58 -1.0941
2.59 -1.10408
2.6 -1.09654
2.61 -1.074
2.62 -1.03635
2.63 -0.983535
2.64 -0.91877
2.65 -0.841931
2.66 -0.756069
2.67 -0.663233
2.68 -0.564881
2.69 -0.463842
2.7 -0.361848
2.71 -0.260807
2.72 -0.162121
2.73 -0.0677575
2.74 0.0220605
2.75 0.106193
2.76 0.184284
2.77 0.256922
2.78 0.323344
2.79 0.385041
2.8 0.442445
2.81 0.496258
2.82 0.547802
2.83 0.597744
2.84 0.64715
2.85 0.696749
2.86 0.747217
2.87 0.798784
2.88 0.851715
2.89 0.905754
2.9 0.960431
2.91 1.01501
2.92 1.06856
2.93 1.11972
2.94 1.16708
2.95 1.20962
2.96 1.24449
2.97 1.27147
2.98 1.28845
2.99 1.29362
3 1.28729
3.01 1.26634
3.02 1.23202
3.03 1.1838
3.04 1.12048
3.05 1.04457
3.06 0.955033
3.07 0.854113
3.08 0.743537
3.09 0.623797
3.1 0.498191
3.11 0.368143
3.12 0.236003
3.13 0.10391
3.14 -0.0256339
3.15 -0.151144
3.16 -0.270433
3.17 -0.381672
3.18 -0.484498
3.19 -0.576107
3.2 -0.657329
3.21 -0.727328
3.22 -0.785101
3.23 -0.832377
3.24 -0.867876
3.25 -0.893294
3.26 -0.909496
3.27 -0.916227
3.28 -0.915808
3.29 -0.908256
3.3 -0.894804
3.31 -0.876589
3.32 -0.85348
3.33 -0.826839
3.34 -0.796656
3.35 -0.763118
3.36 -0.726599
3.37 -0.686353
3.38 -0.642707
3.39 -0.59512
3.4 -0.542924
3.41 -0.486304
3.42 -0.424073
3.43 -0.356536
3.44 -0.283512
3.45 -0.204356
3.46 -0.120128
3.47 -0.0305392
3.48 0.0634363
3.49 0.160766
3.5 0.260752
3.51 0.361681
3.52 0.462112
3.53 0.560329
3.54 0.654951
3.55 0.743114
3.56 0.824157
3.57 0.895847
3.58 0.956108
3.59 1.00498
3.6 1.0391
3.61 1.05941
3.62 1.06511
3.63 1.05455
3.64 1.03009
3.65 0.990167
3.66 0.936769
3.67 0.871419
3.68 0.793865
3.69 0.707618
3.7 0.613483
3.71 0.51366
3.72 0.410427
3.73 0.305375
3.74 0.200674
3.75 0.0981057
3.76 -0.000596557
3.77 -0.0945905
3.78 -0.181719
3.79 -0.262102
3.8 -0.33497
3.81 -0.399453
3.82 -0.456676
3.83 -0.505777
3.84 -0.547997
3.85 -0.584098
3.86 -0.614162
3.87 -0.63997
3.88 -0.661933
3.89 -0.68115
3.9 -0.69859
3.91 -0.714765
3.92 -0.73047
3.93 -0.746078
3.94 -0.761837
3.95 -0.777777
3.96 -0.793764
3.97 -0.809472
3.98 -0.824417
3.99 -0.837904
4 -0.849478
4.01 -0.858003
4.02 -0.86308
4.03 -0.864071
4.04 -0.859845
4.05 -0.850741
4.06 -0.835778
4.07 -0.815216
4.08 -0.789475
4.09 -0.758053
4.1 -0.722455
4.11 -0.68302
4.12 -0.640799
4.13 -0.59708
4.14 -0.553013
4.15 -0.509938
4.16 -0.469236
4.17 -0.432398
4.18 -0.400088
4.19 -0.37431
4.2 -0.355141
4.21 -0.343302
4.22 -0.339933
4.23 -0.343932
4.24 -0.356162
4.25 -0.375486
4.26 -0.400875
4.27 -0.432035
4.28 -0.46676
4.29 -0.503885
4.3 -0.541608
4.31 -0.578264
4.32 -0.611467
4.33 -0.640092
4.34 -0.662033
4.35 -0.675457
4.36 -0.680054
4.37 -0.672899
4.38 -0.654772
4.39 -0.624809
4.4 -0.581863
4.41 -0.52782
4.42 -0.461471
4.43 -0.384746
4.44 -0.298914
4.45 -0.204275
4.46 -0.103708
4.47 0.00171041
4.48 0.109863
4.49 0.218795
4.5 0.32641
4.51 0.431135
4.52 0.530918
4.53 0.624032
4.54 0.709878
4.55 0.785671
4.56 0.852003
4.57 0.907741
4.58 0.951787
4.59 0.985499
4.6 1.00728
4.61 1.01873
4.62 1.02043
4.63 1.01204
4.64 0.995906
4.65 0.972009
4.66 0.941884
4.67 0.906912
4.68 0.867518
4.69 0.825507
4.7 0.781654
4.71 0.736993
4.72 0.692425
4.73 0.648906
4.74 0.606952
4.75 0.567267
4.76 0.530497
4.77 0.496683
4.78 0.466722
4.79 0.440416
4.8 0.418002
4.81 0.400034
4.82 0.385976
4.83 0.376472
4.84 0.371217
4.85 0.370027
4.86 0.3735
4.87 0.380796
4.88 0.392237
4.89 0.407535
4.9 0.426122
4.91 0.448329
4.92 0.473128
4.93 0.50027
4.94 0.529214
4.95 0.559147
4.96 0.589398
4.97 0.619102
4.98 0.647369
4.99 0.673031
5 0.695509
5.01 0.713203
5.02 0.72554
5.03 0.73176
5.04 0.730019
5.05 0.720831
5.06 0.702582
5.07 0.675149
5.08 0.638967
5.09 0.592183
5.1 0.536803
5.11 0.472336
5.12 0.399299
5.13 0.319335
5.14 0.232259
5.15 0.140295
5.16 0.0445194
5.17 -0.0537261
5.18 -0.152676
5.19 -0.250685
5.2 -0.346261
5.21 -0.437953
5.22 -0.523659
5.23 -0.603012
5.24 -0.673905
5.25 -0.735817
5.26 -0.788594
5.27 -0.829983
5.28 -0.861664
5.29 -0.882572
5.3 -0.892993
5.31 -0.894368
5.32 -0.885622
5.33 -0.869211
5.34 -0.845586
5.35 -0.81557
5.36 -0.781015
5.37 -0.742456
5.38 -0.701531
5.39 -0.659296
5.4 -0.616773
5.41 -0.574891
5.42 -0.534597
5.43 -0.496434
5.44 -0.460761
5.45 -0.428338
5.46 -0.398779
5.47 -0.372409
5.48 -0.349009
5.49 -0.328071
5.5 -0.309689
5.51 -0.292997
5.52 -0.277675
5.53 -0.263255
5.54 -0.249204
5.55 -0.235116
5.56 -0.220644
5.57 -0.205517
5.58 -0.189489
5.59 -0.172613
5.6 -0.154801
5.61 -0.136274
5.62 -0.117272
5.63 -0.0980879
5.64 -0.0791147
5.65 -0.0608271
5.66 -0.0436611
5.67 -0.0279356
5.68 -0.0144409
5.69 -0.00314387
5.7 0.00543682
5.71 0.0110317
5.72 0.0138478
5.73 0.0133377
5.74 0.0100879
5.75 0.00418634
5.76 -0.00419356
5.77 -0.0143354
5.78 -0.0259636
5.79 -0.0383505
5.8 -0.0508942
5.81 -0.062882
5.82 -0.0737726
5.83 -0.0827418
5.84 -0.0892816
5.85 -0.0930499
5.86 -0.0930052
5.87 -0.0894484
5.88 -0.0817433
5.89 -0.069745
5.9 -0.0538483
5.91 -0.0333569
5.92 -0.00918764
5.93 0.018613
5.94 0.0498277
5.95 0.0836238
5.96 0.119884
5.97 0.157783
5.98 0.196788
5.99 0.236374
6 0.275919
6.01 0.314827
6.02 0.35262
6.03 0.388909
6.04 0.422961
6.05 0.454789
6.06 0.483815
6.07 0.509824
6.08 0.532908
6.09 0.552266
6.1 0.568437
6.11 0.581087
6.12 0.590057
6.13 0.59576
6.14 0.597611
6.15 0.596137
6.16 0.591301
6.17 0.582875
6.18 0.571425
6.19 0.556592
6.2 0.538776
6.21 0.5182
6.22 0.494658
6.23 0.468817
6.24 0.440643
6.25 0.410512
6.26 0.378878
6.27 0.345864
6.28 0.312111
6.29 0.277993
6.3 0.244
6.31 0.210569
6.32 0.178382
6.33 0.147745
6.34 0.119185
6.35 0.0933258
6.36 0.0701804
6.37 0.050547
6.38 0.0343257
6.39 0.0216189
6.4 0.0129334
6.41 0.0076075
6.42 0.00591553
6.43 0.00739409
6.44 0.0114907
6.45 0.0181433
6.46 0.0263739
6.47 0.0357174
6.48 0.0454727
6.49 0.0549641
6.5 0.0633318
6.51 0.0700963
6.52 0.0745525
6.53 0.0759863
6.54 0.0743446
6.55 0.0687167
6.56 0.0593378
6.57 0.0461169
6.58 0.0287093
6.59 0.00792078
6.6 -0.0163537
6.61 -0.0433964
6.62 -0.0725202
6.63 -0.103277
6.64 -0.13466
6.65 -0.165906
6.66 -0.196152
6.67 -0.224743
6.68 -0.250412
6.69 -0.272959
6.7 -0.29152
6.71 -0.305403
6.72 -0.314798
6.73 -0.318624
6.74 -0.317504
6.75 -0.3114
6.76 -0.300103
6.77 -0.284674
6.78 -0.265027
6.79 -0.242116
6.8 -0.216702
6.81 -0.189282
6.82 -0.160946
6.83 -0.13243
6.84 -0.104563
6.85 -0.0779822
6.86 -0.0537735
6.87 -0.0321011
6.88 -0.0137027
6.89 0.00095082
6.9 0.0120251
6.91 0.0186872
6.92 0.0215533
6.93 0.0205813
6.94 0.0157299
6.95 0.00780431
6.96 -0.00325821
6.97 -0.0167032
6.98 -0.032029
6.99 -0.0489062
7 -0.0666109
7.01 -0.0847361
7.02 -0.102794
7.03 -0.120414
7.04 -0.137101
7.05 -0.152738
7.06 -0.166993
7.07 -0.179697
7.08 -0.190917
7.09 -0.200305
7.1 -0.208142
7.11 -0.214366
7.12 -0.218934
7.13 -0.222101
7.14 -0.223673
7.15 -0.223851
7.16 -0.222626
7.17 -0.219797
7.18 -0.215526
7.19 -0.20948
7.2 -0.201614
7.21 -0.19185
7.22 -0.179622
7.23 -0.16513
7.24 -0.147895
7.25 -0.127746
7.26 -0.104803
7.27 -0.0783423
7.28 -0.0488991
7.29 -0.0162577
7.3 0.0196059
7.31 0.0581463
7.32 0.0995352
7.33 0.143057
7.34 0.188322
7.35 0.234919
7.36 0.28211
7.37 0.329303
7.38 0.375833
7.39 0.421106
7.4 0.464197
7.41 0.504878
7.42 0.542294
7.43 0.576071
7.44 0.606198
7.45 0.63161
7.46 0.653048
7.47 0.670158
7.48 0.683005
7.49 0.692313
7.5 0.697867
7.51 0.700683
7.52 0.701226
7.53 0.700027
7.54 0.697956
7.55 0.69563
7.56 0.693745
7.57 0.692879
7.58 0.693782
7.59 0.696607
7.6 0.701942
7.61 0.709862
7.62 0.72022
7.63 0.733342
7.64 0.748478
7.65 0.765392
7.66 0.783493
7.67 0.802023
7.68 0.820137
7.69 0.83704
7.7 0.85176
7.71 0.863152
7.72 0.870769
7.73 0.872992
7.74 0.869606
7.75 0.859951
7.76 0.842673
7.77 0.8185
7.78 0.786196
7.79 0.746181
7.8 0.698962
7.81 0.643614
7.82 0.581934
7.83 0.513838
7.84 0.440176
7.85 0.362264
7.86 0.280343
7.87 0.196077
7.88 0.110327
7.89 0.0241635
7.9 -0.0614057
7.91 -0.14517
7.92 -0.226453
7.93 -0.304436
7.94 -0.378032
7.95 -0.447319
7.96 -0.511182
7.97 -0.569733
7.98 -0.623015
7.99 -0.670173
8 -0.712277
8.01 -0.748914
8.02 -0.780526
8.03 -0.807875
8.04 -0.830522
8.05 -0.849749
8.06 -0.865689
8.07 -0.878741
8.08 -0.889629
8.09 -0.898398
8.1 -0.905687
8.11 -0.911729
8.12 -0.916683
8.13 -0.920857
8.14 -0.924239
8.15 -0.926944
8.16 -0.928972
8.17 -0.930156
8.18 -0.930521
8.19 -0.929808
8.2 -0.927887
8.21 -0.924676
8.22 -0.919694
8.23 -0.913064
8.24 -0.904434
8.25 -0.893612
8.26 -0.880687
8.27 -0.865101
8.28 -0.847158
8.29 -0.826659
8.3 -0.803398
8.31 -0.777703
8.32 -0.749169
8.33 -0.718121
8.34 -0.684615
8.35 -0.648435
8.36 -0.610062
8.37 -0.5693
8.38 -0.526415
8.39 -0.481658
8.4 -0.434885
8.41 -0.38661
8.42 -0.336875
8.43 -0.285929
8.44 -0.234116
8.45 -0.181579
8.46 -0.128728
8.47 -0.0758548
8.48 -0.0233235
8.49 0.028577
8.5 0.0793211
8.51 0.128679
8.52 0.176274
8.53 0.221533
8.54 0.264464
8.55 0.304382
8.56 0.34123
8.57 0.374913
8.58 0.404729
8.59 0.431193
8.6 0.453849
8.61 0.472811
8.62 0.488483
8.63 0.500343
8.64 0.509284
8.65 0.515319
8.66 0.518717
8.67 0.520111
8.68 0.519576
8.69 0.517772
8.7 0.515051
8.71 0.511764
8.72 0.508326
8.73 0.50506
8.74 0.502216
8.75 0.499971
8.76 0.498556
8.77 0.497892
8.78 0.498052
8.79 0.498904
8.8 0.500247
8.81 0.501916
8.82 0.50359
8.83 0.504958
8.84 0.505673
8.85 0.505498
8.86 0.503894
8.87 0.500792
8.88 0.495881
8.89 0.488852
8.9 0.479872
8.91 0.468587
8.92 0.455295
8.93 0.440151
8.94 0.423195
8.95 0.404998
8.96 0.385804
8.97 0.366128
8.98 0.346452
8.99 0.32738
9 0.309318
9.01 0.292898
9.02 0.278615
9.03 0.266651
9.04 0.257899
9.05 0.252106
9.06 0.249643
9.07 0.250747
9.08 0.254952
9.09 0.262638
9.1 0.273143
9.11 0.286162
9.12 0.301473
9.13 0.318272
9.14 0.336177
9.15 0.354517
9.16 0.372718
9.17 0.390088
9.18 0.406234
9.19 0.420502
9.2 0.432492
9.21 0.4421
9.22 0.448529
9.23 0.452205
9.24 0.452855
9.25 0.450462
9.26 0.445522
9.27 0.437851
9.28 0.428129
9.29 0.416664
9.3 0.403761
9.31 0.39002
9.32 0.37577
9.33 0.361455
9.34 0.347404
9.35 0.333977
9.36 0.321278
9.37 0.309519
9.38 0.298689
9.39 0.288652
9.4 0.279369
9.41 0.27046
9.42 0.261624
9.43 0.252445
9.44 0.242555
9.45 0.231279
9.46 0.218361
9.47 0.203285
9.48 0.185464
9.49 0.164924
9.5 0.140918
9.51 0.113622
9.52 0.0829976
9.53 0.0486785
9.54 0.0113662
9.55 -0.0290625
9.56 -0.0720611
9.57 -0.117045
9.58 -0.163748
9.59 -0.211294
9.6 -0.259124
9.61 -0.306548
9.62 -0.353015
9.63 -0.397609
9.64 -0.44008
9.65 -0.479808
9.66 -0.516225
9.67 -0.549454
9.68 -0.578731
9.69 -0.604445
9.7 -0.626609
9.71 -0.645021
9.72 -0.660463
9.73 -0.672874
9.74 -0.682885
9.75 -0.691034
9.76 -0.697584
9.77 -0.703279
9.78 -0.708512
9.79 -0.713755
9.8 -0.719358
9.81 -0.725764
9.82 -0.733048
9.83 -0.741404
9.84 -0.750888
9.85 -0.761295
9.86 -0.772588
9.87 -0.78438
9.88 -0.796345
9.89 -0.808044
9.9 -0.819084
9.91 -0.82884
9.92 -0.836938
9.93 -0.842993
9.94 -0.846235
9.95 -0.846765
9.96 -0.843953
9.97 -0.837721
9.98 -0.828255
9.99 -0.814905
10 -0.798472
10.01 -0.77887
10.02 -0.756371
10.03 -0.731635
10.04 -0.704739
10.05 -0.676471
10.06 -0.647262
10.07 -0.617593
10.08 -0.587976
10.09 -0.558901
10.1 -0.530691
10.11 -0.503615
10.12 -0.478046
10.13 -0.453854
10.14 -0.431216
10.15 -0.409938
10.16 -0.389739
10.17 -0.370459
10.18 -0.351566
10.19 -0.332637
10.2 -0.313151
10.21 -0.292684
10.22 -0.27043
10.23 -0.246178
10.24 -0.219356
10.25 -0.189407
10.26 -0.156425
10.27 -0.119652
10.28 -0.0794199
10.29 -0.0357263
10.3 0.0116457
10.31 0.0619192
10.32 0.115107
10.33 0.17053
10.34 0.227552
10.35 0.285704
10.36 0.34413
10.37 0.402112
10.38 0.458893
10.39 0.513926
10.4 0.56603
10.41 0.615088
10.42 0.660298
10.43 0.701011
10.44 0.737392
10.45 0.768334
10.46 0.794361
10.47 0.815294
10.48 0.830709
10.49 0.841486
10.5 0.847139
10.51 0.848368
10.52 0.845619
10.53 0.838719
10.54 0.828701
10.55 0.815579
10.56 0.799848
10.57 0.782045
10.58 0.76211
10.59 0.740687
10.6 0.717848
10.61 0.693742
10.62 0.66861
10.63 0.64232
10.64 0.615051
10.65 0.586736
10.66 0.557245
10.67 0.526669
10.68 0.494751
10.69 0.461559
10.7 0.42707
10.71 0.391105
10.72 0.353918
10.73 0.315428
10.74 0.275837
10.75 0.235389
10.76 0.19421
10.77 0.152717
10.78 0.111233
10.79 0.0701704
10.8 0.0298762
10.81 -0.00897232
10.82 -0.0461491
10.83 -0.081103
10.84 -0.11323
10.85 -0.142486
10.86 -0.16795
10.87 -0.189705
10.88 -0.20747
10.89 -0.220556
10.9 -0.229498
10.91 -0.233614
10.92 -0.233201
10.93 -0.228537
10.94 -0.219039
10.95 -0.20569
10.96 -0.188297
10.97 -0.167221
10.98 -0.143111
10.99 -0.115763
11 -0.0861154
11.01 -0.054395
11.02 -0.0209804
11.03 0.0135274
11.04 0.0488343
11.05 0.0844116
11.06 0.119855
11.07 0.154696
11.08 0.188636
11.09 0.221115
11.1 0.251871
11.11 0.280623
11.12 0.306678
11.13 0.330158
11.14 0.350426
11.15 0.367291
11.16 0.380808
11.17 0.389996
11.18 0.395441
11.19 0.39663
11.2 0.393346
11.21 0.386013
11.22 0.373832
11.23 0.357508
11.24 0.336964
11.25 0.312035
11.26 0.283486
11.27 0.251015
11.28 0.215305
11.29 0.176751
11.3 0.135435
11.31 0.0922026
11.32 0.0473002
11.33 0.00130809
11.34 -0.0452413
11.35 -0.0918771
11.36 -0.13812
11.37 -0.183476
11.38 -0.227506
11.39 -0.27001
11.4 -0.310327
11.41 -0.348552
11.42 -0.384391
11.43 -0.417588
11.44 -0.44843
11.45 -0.476543
11.46 -0.502306
11.47 -0.525844
11.48 -0.547098
11.49 -0.566598
11.5 -0.584337
11.51 -0.600657
11.52 -0.61584
11.53 -0.629923
11.54 -0.643258
11.55 -0.655894
11.56 -0.667928
11.57 -0.679445
11.58 -0.690307
11.59 -0.700544
11.6 -0.709972
11.61 -0.718358
11.62 -0.725616
11.63 -0.731252
11.64 -0.73519
11.65 -0.737126
11.66 -0.736562
11.67 -0.733605
11.68 -0.727651
11.69 -0.718753
11.7 -0.706901
11.71 -0.691573
11.72 -0.673338
11.73 -0.651929
11.74 -0.627596
11.75 -0.600794
11.76 -0.571331
11.77 -0.540018
11.78 -0.507062
11.79 -0.472863
11.8 -0.437952
11.81 -0.402685
11.82 -0.367519
11.83 -0.332831
11.84 -0.29903
11.85 -0.26627
11.86 -0.234965
11.87 -0.205138
11.88 -0.176841
11.89 -0.150294
11.9 -0.125174
11.91 -0.101541
11.92 -0.0791518
11.93 -0.0577214
11.94 -0.0371521
11.95 -0.0170443
11.96 0.00281127
11.97 0.0226631
11.98 0.0427016
11.99 0.0631477
12 0.0840405
12.01 0.105438
12.02 0.127331
12.03 0.149556
12.04 0.171961
12.05 0.194272
12.06 0.216186
12.07 0.237245
12.08 0.257187
12.09 0.275396
12.1 0.291529
12.11 0.305303
12.12 0.315845
12.13 0.323355
12.14 0.327199
12.15 0.327184
12.16 0.323558
12.17 0.315525
12.18 0.303868
12.19 0.288476
12.2 0.269448
12.21 0.247521
12.22 0.222636
12.23 0.195616
12.24 0.166924
12.25 0.136996
12.26 0.106535
12.27 0.0760579
12.28 0.0460997
12.29 0.0170986
12.3 -0.0102983
12.31 -0.035995
12.32 -0.0594838
12.33 -0.0805996
12.34 -0.0994314
12.35 -0.115426
12.36 -0.129118
12.37 -0.140391
12.38 -0.149342
12.39 -0.15641
12.4 -0.161502
12.41 -0.165126
12.42 -0.167466
12.43 -0.16867
12.44 -0.169082
12.45 -0.168753
12.46 -0.167872
12.47 -0.166513
12.48 -0.164625
12.49 -0.162255
12.5 -0.159248
12.51 -0.155499
12.52 -0.150921
12.53 -0.145144
12.54 -0.138206
12.55 -0.129824
12.56 -0.119837
12.57 -0.108324
12.58 -0.094937
12.59 -0.0799813
12.6 -0.0634749
12.61 -0.0455153
12.62 -0.0265302
12.63 -0.00672962
12.64 0.0133857
12.65 0.0333571
12.66 0.0525732
12.67 0.0706088
12.68 0.0866795
12.69 0.100308
12.7 0.111126
12.71 0.118044
12.72 0.121299
12.73 0.120133
12.74 0.114316
12.75 0.104178
12.76 0.0888226
12.77 0.0692214
12.78 0.0453276
12.79 0.0173471
12.8 -0.0137754
12.81 -0.0479273
12.82 -0.0840754
12.83 -0.121533
12.84 -0.159568
12.85 -0.197342
12.86 -0.233964
12.87 -0.268751
12.88 -0.301124
12.89 -0.329986
12.9 -0.355401
12.91 -0.376533
12.92 -0.393177
12.93 -0.405582
12.94 -0.412793
12.95 -0.415812
12.96 -0.414467
12.97 -0.408952
12.98 -0.40009
12.99 -0.387773
13 -0.372948
13.01 -0.356036
13.02 -0.337421
13.03 -0.317795
13.04 -0.29748
13.05 -0.276919
13.06 -0.256404
13.07 -0.236188
13.08 -0.216343
13.09 -0.196942
13.1 -0.177903
13.11 -0.159065
13.12 -0.140207
13.13 -0.121061
13.14 -0.101278
13.15 -0.0804912
13.16 -0.0584939
13.17 -0.0346853
