# xPDFsuite Configuration #
[PDF]
wavelength = 0.1
dataformat = Qnm
inputfile = A3-Li-TiO2-12h-p2_028.chi
backgroundfile = A2_Bkg-Li_d22-00000.chi
mode = xray
bgscale = 0.91
composition = TiO2
outputtype = gr
qmaxinst = 21.4
qmin = 0.1
qmax = 21.4
rmax = 100.0
rmin = 0.0
rstep = 0.01
rpoly = 0.9

[Misc]
inputdir = D:/APS_March_2019/Run3/Processed-Data/A3-Li-TiO2-12h-p2/chi-files
savedir = D:/APS_March_2019/Run3/Processed-Data/A3-Li-TiO2-12h-p2
backgroundfilefull = D:/APS_March_2019/Calib-Bkg/A2_Bkg-Li_d22-00000.chi

#### start data
#S 1
#L r($\AA$)  G($\AA^{-2}$)
0 0
0.01 -0.00045521
0.02 -0.000890604
0.03 -0.00128511
0.04 -0.00161897
0.05 -0.00188491
0.06 -0.00205668
0.07 -0.00213923
0.08 -0.0021257
0.09 -0.00200899
0.1 -0.00180723
0.11 -0.00151671
0.12 -0.00115831
0.13 -0.000748565
0.14 -0.000301928
0.15 0.000155637
0.16 0.000601361
0.17 0.00101103
0.18 0.00136464
0.19 0.00162194
0.2 0.00177571
0.21 0.0017908
0.22 0.00164098
0.23 0.00132216
0.24 0.000775121
0.25 1.33808e-05
0.26 -0.000994096
0.27 -0.00228228
0.28 -0.00383058
0.29 -0.00569684
0.3 -0.00785531
0.31 -0.0103067
0.32 -0.0130781
0.33 -0.0161059
0.34 -0.0193927
0.35 -0.0228756
0.36 -0.0264831
0.37 -0.0301346
0.38 -0.0337139
0.39 -0.0370679
0.4 -0.0400211
0.41 -0.0424311
0.42 -0.0439152
0.43 -0.0443726
0.44 -0.0434476
0.45 -0.0407484
0.46 -0.0361864
0.47 -0.029054
0.48 -0.0193303
0.49 -0.00666808
0.5 0.00955569
0.51 0.0290859
0.52 0.0526426
0.53 0.0800764
0.54 0.111297
0.55 0.146872
0.56 0.185968
0.57 0.228744
0.58 0.274721
0.59 0.323159
0.6 0.373826
0.61 0.425575
0.62 0.477612
0.63 0.528873
0.64 0.578424
0.65 0.624592
0.66 0.666611
0.67 0.703121
0.68 0.732297
0.69 0.753984
0.7 0.765751
0.71 0.767454
0.72 0.758497
0.73 0.736625
0.74 0.7034
0.75 0.657133
0.76 0.598405
0.77 0.528449
0.78 0.445766
0.79 0.353493
0.8 0.251896
0.81 0.14245
0.82 0.0275687
0.83 -0.0915571
0.84 -0.212213
0.85 -0.332289
0.86 -0.449254
0.87 -0.56135
0.88 -0.665274
0.89 -0.759756
0.9 -0.843014
0.91 -0.911818
0.92 -0.96701
0.93 -1.00563
0.94 -1.02798
0.95 -1.03482
0.96 -1.02363
0.97 -0.998126
0.98 -0.957905
0.99 -0.904666
1 -0.841426
1.01 -0.768775
1.02 -0.690715
1.03 -0.609555
1.04 -0.528205
1.05 -0.449366
1.06 -0.376661
1.07 -0.312035
1.08 -0.257945
1.09 -0.217853
1.1 -0.191449
1.11 -0.182173
1.12 -0.189647
1.13 -0.213457
1.14 -0.255952
1.15 -0.313329
1.16 -0.385969
1.17 -0.47164
1.18 -0.567113
1.19 -0.671338
1.2 -0.779879
1.21 -0.889967
1.22 -0.998142
1.23 -1.10157
1.24 -1.19571
1.25 -1.27883
1.26 -1.34799
1.27 -1.39947
1.28 -1.43393
1.29 -1.44728
1.3 -1.44061
1.31 -1.41433
1.32 -1.36624
1.33 -1.30081
1.34 -1.21764
1.35 -1.1197
1.36 -1.0106
1.37 -0.891676
1.38 -0.767943
1.39 -0.642466
1.4 -0.519027
1.41 -0.400681
1.42 -0.292317
1.43 -0.195532
1.44 -0.113536
1.45 -0.0497831
1.46 -0.00356293
1.47 0.0209645
1.48 0.0254803
1.49 0.0102666
1.5 -0.0262571
1.51 -0.0795981
1.52 -0.149996
1.53 -0.234055
1.54 -0.32833
1.55 -0.431013
1.56 -0.537403
1.57 -0.644353
1.58 -0.748211
1.59 -0.846191
1.6 -0.933415
1.61 -1.00882
1.62 -1.06923
1.63 -1.11177
1.64 -1.13722
1.65 -1.14156
1.66 -1.12688
1.67 -1.09317
1.68 -1.03924
1.69 -0.969112
1.7 -0.882181
1.71 -0.781626
1.72 -0.670161
1.73 -0.548818
1.74 -0.421679
1.75 -0.290704
1.76 -0.158554
1.77 -0.027462
1.78 0.0998636
1.79 0.222298
1.8 0.337959
1.81 0.445407
1.82 0.544854
1.83 0.634357
1.84 0.715138
1.85 0.787187
1.86 0.850282
1.87 0.9063
1.88 0.955057
1.89 0.998083
1.9 1.0364
1.91 1.07031
1.92 1.10121
1.93 1.1293
1.94 1.15506
1.95 1.17878
1.96 1.19986
1.97 1.21837
1.98 1.2334
1.99 1.24396
2 1.24958
2.01 1.24791
2.02 1.23879
2.03 1.22066
2.04 1.19158
2.05 1.152
2.06 1.09926
2.07 1.03406
2.08 0.956304
2.09 0.864498
2.1 0.761215
2.11 0.645837
2.12 0.520281
2.13 0.386699
2.14 0.245904
2.15 0.101326
2.16 -0.0449028
2.17 -0.190006
2.18 -0.331614
2.19 -0.465877
2.2 -0.591419
2.21 -0.705347
2.22 -0.804769
2.23 -0.889811
2.24 -0.956468
2.25 -1.00594
2.26 -1.03775
2.27 -1.05012
2.28 -1.04645
2.29 -1.02563
2.3 -0.990431
2.31 -0.943359
2.32 -0.885111
2.33 -0.820019
2.34 -0.750123
2.35 -0.678449
2.36 -0.607721
2.37 -0.541319
2.38 -0.480936
2.39 -0.42924
2.4 -0.388517
2.41 -0.35885
2.42 -0.343368
2.43 -0.340758
2.44 -0.351341
2.45 -0.375793
2.46 -0.411345
2.47 -0.458245
2.48 -0.513859
2.49 -0.576061
2.5 -0.643326
2.51 -0.712616
2.52 -0.7817
2.53 -0.848162
2.54 -0.910181
2.55 -0.964409
2.56 -1.01049
2.57 -1.04614
2.58 -1.06997
2.59 -1.0825
2.6 -1.08112
2.61 -1.06776
2.62 -1.04223
2.63 -1.00434
2.64 -0.956552
2.65 -0.898528
2.66 -0.832573
2.67 -0.760144
2.68 -0.68206
2.69 -0.600572
2.7 -0.516689
2.71 -0.431828
2.72 -0.347075
2.73 -0.263519
2.74 -0.181636
2.75 -0.102084
2.76 -0.0251439
2.77 0.0493862
2.78 0.121161
2.79 0.19087
2.8 0.258751
2.81 0.325168
2.82 0.390715
2.83 0.455697
2.84 0.520506
2.85 0.58534
2.86 0.650261
2.87 0.715143
2.88 0.779627
2.89 0.843203
2.9 0.90525
2.91 0.964461
2.92 1.02028
2.93 1.07111
2.94 1.11568
2.95 1.15342
2.96 1.18137
2.97 1.20002
2.98 1.20756
2.99 1.20261
3 1.18597
3.01 1.15503
3.02 1.11142
3.03 1.05501
3.04 0.985112
3.05 0.904288
3.06 0.81201
3.07 0.710501
3.08 0.601497
3.09 0.485818
3.1 0.366303
3.11 0.244488
3.12 0.122465
3.13 0.00200269
3.14 -0.114384
3.15 -0.225758
3.16 -0.330119
3.17 -0.425913
3.18 -0.513067
3.19 -0.58898
3.2 -0.654658
3.21 -0.709391
3.22 -0.752274
3.23 -0.785001
3.24 -0.806305
3.25 -0.81776
3.26 -0.820105
3.27 -0.812913
3.28 -0.798338
3.29 -0.776158
3.3 -0.747429
3.31 -0.713168
3.32 -0.67292
3.33 -0.62813
3.34 -0.578623
3.35 -0.524581
3.36 -0.466555
3.37 -0.403751
3.38 -0.336854
3.39 -0.265544
3.4 -0.18948
3.41 -0.109216
3.42 -0.024076
3.43 0.065264
3.44 0.158536
3.45 0.255686
3.46 0.35555
3.47 0.457623
3.48 0.560736
3.49 0.663725
3.5 0.764993
3.51 0.863383
3.52 0.956923
3.53 1.04394
3.54 1.12354
3.55 1.19227
3.56 1.25046
3.57 1.29594
3.58 1.32694
3.59 1.34429
3.6 1.34479
3.61 1.33017
3.62 1.30014
3.63 1.25356
3.64 1.19336
3.65 1.11853
3.66 1.03148
3.67 0.934071
3.68 0.826689
3.69 0.712759
3.7 0.593561
3.71 0.47136
3.72 0.348258
3.73 0.226376
3.74 0.107265
3.75 -0.00720046
3.76 -0.11542
3.77 -0.21702
3.78 -0.309771
3.79 -0.394338
3.8 -0.47017
3.81 -0.536611
3.82 -0.595176
3.83 -0.645182
3.84 -0.688139
3.85 -0.725002
3.86 -0.75604
3.87 -0.783126
3.88 -0.806805
3.89 -0.828212
3.9 -0.848303
3.91 -0.867665
3.92 -0.886965
3.93 -0.906553
3.94 -0.926598
3.95 -0.947017
3.96 -0.967596
3.97 -0.987896
3.98 -1.00733
3.99 -1.0251
4 -1.04069
4.01 -1.05284
4.02 -1.06112
4.03 -1.06484
4.04 -1.06276
4.05 -1.05526
4.06 -1.04126
4.07 -1.02104
4.08 -0.995012
4.09 -0.96255
4.1 -0.925257
4.11 -0.883371
4.12 -0.837914
4.13 -0.790216
4.14 -0.741217
4.15 -0.692368
4.16 -0.644938
4.17 -0.600316
4.18 -0.559241
4.19 -0.523487
4.2 -0.493234
4.21 -0.469154
4.22 -0.452251
4.23 -0.441605
4.24 -0.437933
4.25 -0.440231
4.26 -0.447579
4.27 -0.459628
4.28 -0.474459
4.29 -0.490966
4.3 -0.507542
4.31 -0.522745
4.32 -0.534378
4.33 -0.541562
4.34 -0.542445
4.35 -0.535471
4.36 -0.520489
4.37 -0.495015
4.38 -0.459896
4.39 -0.414532
4.4 -0.358133
4.41 -0.292495
4.42 -0.216876
4.43 -0.133119
4.44 -0.0425305
4.45 0.0542201
4.46 0.154649
4.47 0.257415
4.48 0.360572
4.49 0.462426
4.5 0.560627
4.51 0.65417
4.52 0.741023
4.53 0.81967
4.54 0.889894
4.55 0.948974
4.56 0.997928
4.57 1.03585
4.58 1.06191
4.59 1.07772
4.6 1.082
4.61 1.07655
4.62 1.06214
4.63 1.03877
4.64 1.00876
4.65 0.972401
4.66 0.931264
4.67 0.886712
4.68 0.839467
4.69 0.791043
4.7 0.74233
4.71 0.694274
4.72 0.647529
4.73 0.603129
4.74 0.561203
4.75 0.522309
4.76 0.486878
4.77 0.454647
4.78 0.426251
4.79 0.401213
4.8 0.379493
4.81 0.361273
4.82 0.345891
4.83 0.333553
4.84 0.323824
4.85 0.316397
4.86 0.311391
4.87 0.308205
4.88 0.306838
4.89 0.307023
4.9 0.308415
4.91 0.310991
4.92 0.314285
4.93 0.318071
4.94 0.322015
4.95 0.32576
4.96 0.328803
4.97 0.330793
4.98 0.331228
4.99 0.329414
5 0.325154
5.01 0.317477
5.02 0.306159
5.03 0.290827
5.04 0.270423
5.05 0.245397
5.06 0.21488
5.07 0.178935
5.08 0.137958
5.09 0.0910881
5.1 0.0396404
5.11 -0.0163916
5.12 -0.0764248
5.13 -0.139345
5.14 -0.204679
5.15 -0.271069
5.16 -0.337477
5.17 -0.402613
5.18 -0.465495
5.19 -0.524378
5.2 -0.57847
5.21 -0.626724
5.22 -0.667264
5.23 -0.700385
5.24 -0.72428
5.25 -0.73889
5.26 -0.744443
5.27 -0.739142
5.28 -0.724919
5.29 -0.701128
5.3 -0.668365
5.31 -0.628176
5.32 -0.5801
5.33 -0.526449
5.34 -0.468003
5.35 -0.405884
5.36 -0.341754
5.37 -0.276737
5.38 -0.212217
5.39 -0.149374
5.4 -0.0896328
5.41 -0.0335033
5.42 0.017565
5.43 0.0632257
5.44 0.103231
5.45 0.136278
5.46 0.163356
5.47 0.183784
5.48 0.197885
5.49 0.206522
5.5 0.209047
5.51 0.207055
5.52 0.200752
5.53 0.190689
5.54 0.177902
5.55 0.162618
5.56 0.145767
5.57 0.127841
5.58 0.109276
5.59 0.0905404
5.6 0.0719469
5.61 0.0537101
5.62 0.035951
5.63 0.0188048
5.64 0.00216771
5.65 -0.013963
5.66 -0.0297095
5.67 -0.0452116
5.68 -0.060564
5.69 -0.0758982
5.7 -0.0912872
5.71 -0.106765
5.72 -0.122301
5.73 -0.137805
5.74 -0.153128
5.75 -0.168044
5.76 -0.182213
5.77 -0.195413
5.78 -0.207055
5.79 -0.216876
5.8 -0.224484
5.81 -0.229117
5.82 -0.230835
5.83 -0.228846
5.84 -0.223022
5.85 -0.213376
5.86 -0.199014
5.87 -0.180679
5.88 -0.157981
5.89 -0.131074
5.9 -0.100596
5.91 -0.0662236
5.92 -0.029002
5.93 0.0107464
5.94 0.0525254
5.95 0.0954997
5.96 0.139132
5.97 0.18267
5.98 0.225466
5.99 0.266712
6 0.306045
6.01 0.34258
6.02 0.375998
6.03 0.406047
6.04 0.431774
6.05 0.453643
6.06 0.471032
6.07 0.483939
6.08 0.492775
6.09 0.49677
6.1 0.496904
6.11 0.49306
6.12 0.485375
6.13 0.47456
6.14 0.460405
6.15 0.443676
6.16 0.424643
6.17 0.403484
6.18 0.380815
6.19 0.356764
6.2 0.33177
6.21 0.306144
6.22 0.280121
6.23 0.254024
6.24 0.228107
6.25 0.202612
6.26 0.177711
6.27 0.153778
6.28 0.130838
6.29 0.109173
6.3 0.0889916
6.31 0.07028
6.32 0.053483
6.33 0.0384429
6.34 0.0253249
6.35 0.0143313
6.36 0.00520862
6.37 -0.00175655
6.38 -0.00683751
6.39 -0.0101619
6.4 -0.0116854
6.41 -0.0118809
6.42 -0.0108448
6.43 -0.00894882
6.44 -0.00656226
6.45 -0.0040272
6.46 -0.00174917
6.47 -0.000162378
6.48 0.000316154
6.49 -0.000549511
6.5 -0.00343257
6.51 -0.00830919
6.52 -0.0155346
6.53 -0.025414
6.54 -0.0376998
6.55 -0.0527981
6.56 -0.0702902
6.57 -0.0899972
6.58 -0.111833
6.59 -0.135127
6.6 -0.159587
6.61 -0.184594
6.62 -0.209578
6.63 -0.233816
6.64 -0.256818
6.65 -0.27779
6.66 -0.296133
6.67 -0.311582
6.68 -0.322948
6.69 -0.330534
6.7 -0.333736
6.71 -0.33219
6.72 -0.326376
6.73 -0.315582
6.74 -0.300618
6.75 -0.28168
6.76 -0.258859
6.77 -0.233175
6.78 -0.20484
6.79 -0.174735
6.8 -0.143578
6.81 -0.11204
6.82 -0.0808743
6.83 -0.0508556
6.84 -0.0226195
6.85 0.00344966
6.86 0.0263038
6.87 0.0461267
6.88 0.0623385
6.89 0.074678
6.9 0.0835058
6.91 0.0882105
6.92 0.0895293
6.93 0.0875739
6.94 0.0824719
6.95 0.0750178
6.96 0.065335
6.97 0.0541279
6.98 0.041896
6.99 0.0290661
7 0.0161851
7.01 0.00370909
7.02 -0.00798073
7.03 -0.0186305
7.04 -0.0277291
7.05 -0.035349
7.06 -0.0412006
7.07 -0.0452014
7.08 -0.0475212
7.09 -0.047855
7.1 -0.0465703
7.11 -0.0436523
7.12 -0.039106
7.13 -0.0332146
7.14 -0.0258243
7.15 -0.0171437
7.16 -0.00717836
7.17 0.00424971
7.18 0.0169933
7.19 0.0313615
7.2 0.0474017
7.21 0.0651913
7.22 0.0852553
7.23 0.107407
7.24 0.132083
7.25 0.159424
7.26 0.189297
7.27 0.222321
7.28 0.257969
7.29 0.296371
7.3 0.33746
7.31 0.380687
7.32 0.426036
7.33 0.472797
7.34 0.520482
7.35 0.568497
7.36 0.616154
7.37 0.662607
7.38 0.707185
7.39 0.749239
7.4 0.787536
7.41 0.822002
7.42 0.851506
7.43 0.875626
7.44 0.894418
7.45 0.906364
7.46 0.912517
7.47 0.912291
7.48 0.905656
7.49 0.893546
7.5 0.875369
7.51 0.852473
7.52 0.825287
7.53 0.794257
7.54 0.76062
7.55 0.724853
7.56 0.687984
7.57 0.650799
7.58 0.614121
7.59 0.578539
7.6 0.544834
7.61 0.513429
7.62 0.484504
7.63 0.458811
7.64 0.435874
7.65 0.415919
7.66 0.398761
7.67 0.383821
7.68 0.371036
7.69 0.359558
7.7 0.348871
7.71 0.338322
7.72 0.327266
7.73 0.314877
7.74 0.300665
7.75 0.284076
7.76 0.264276
7.77 0.241348
7.78 0.214539
7.79 0.183908
7.8 0.149616
7.81 0.111124
7.82 0.0693399
7.83 0.0242345
7.84 -0.0236984
7.85 -0.0737082
7.86 -0.125519
7.87 -0.178189
7.88 -0.231108
7.89 -0.283544
7.9 -0.334925
7.91 -0.384338
7.92 -0.431443
7.93 -0.475706
7.94 -0.516377
7.95 -0.553642
7.96 -0.586741
7.97 -0.615861
7.98 -0.641123
7.99 -0.662013
8 -0.679389
8.01 -0.693076
8.02 -0.70349
8.03 -0.711241
8.04 -0.716216
8.05 -0.719316
8.06 -0.720773
8.07 -0.720969
8.08 -0.720388
8.09 -0.719261
8.1 -0.717942
8.11 -0.716641
8.12 -0.715539
8.13 -0.714702
8.14 -0.71421
8.15 -0.714005
8.16 -0.714002
8.17 -0.714076
8.18 -0.714046
8.19 -0.713675
8.2 -0.712734
8.21 -0.711033
8.22 -0.70812
8.23 -0.70396
8.24 -0.698178
8.25 -0.690523
8.26 -0.681001
8.27 -0.669044
8.28 -0.654878
8.29 -0.638278
8.3 -0.619014
8.31 -0.597385
8.32 -0.572987
8.33 -0.546138
8.34 -0.516901
8.35 -0.485091
8.36 -0.451195
8.37 -0.415068
8.38 -0.377003
8.39 -0.337275
8.4 -0.295817
8.41 -0.253129
8.42 -0.209311
8.43 -0.164628
8.44 -0.119399
8.45 -0.0738283
8.46 -0.0282437
8.47 0.0170741
8.48 0.0618026
8.49 0.105743
8.5 0.148431
8.51 0.189742
8.52 0.229399
8.53 0.266962
8.54 0.302514
8.55 0.335543
8.56 0.366069
8.57 0.394073
8.58 0.419057
8.59 0.441472
8.6 0.461015
8.61 0.477808
8.62 0.492181
8.63 0.503772
8.64 0.513248
8.65 0.520619
8.66 0.52607
8.67 0.530041
8.68 0.532543
8.69 0.534019
8.7 0.534664
8.71 0.534647
8.72 0.534233
8.73 0.533523
8.74 0.532653
8.75 0.531685
8.76 0.530622
8.77 0.529448
8.78 0.528065
8.79 0.526361
8.8 0.524222
8.81 0.521352
8.82 0.517696
8.83 0.512978
8.84 0.506991
8.85 0.499718
8.86 0.490752
8.87 0.48026
8.88 0.468128
8.89 0.454278
8.9 0.439011
8.91 0.422264
8.92 0.404413
8.93 0.385739
8.94 0.366525
8.95 0.347224
8.96 0.32828
8.97 0.310133
8.98 0.293156
8.99 0.27808
9 0.264989
9.01 0.254483
9.02 0.24688
9.03 0.242121
9.04 0.240978
9.05 0.242927
9.06 0.248148
9.07 0.256652
9.08 0.267828
9.09 0.28178
9.1 0.297768
9.11 0.315352
9.12 0.334092
9.13 0.353271
9.14 0.372298
9.15 0.390569
9.16 0.407564
9.17 0.422445
9.18 0.435081
9.19 0.444771
9.2 0.45123
9.21 0.454528
9.22 0.453826
9.23 0.449796
9.24 0.442218
9.25 0.431162
9.26 0.417253
9.27 0.400335
9.28 0.381189
9.29 0.360158
9.3 0.337574
9.31 0.314068
9.32 0.289962
9.33 0.265701
9.34 0.241605
9.35 0.217999
9.36 0.194987
9.37 0.172745
9.38 0.151252
9.39 0.13038
9.4 0.110058
9.41 0.0899543
9.42 0.0697837
9.43 0.049173
9.44 0.0278188
9.45 0.00512494
9.46 -0.0190864
9.47 -0.0452267
9.48 -0.0737485
9.49 -0.104561
9.5 -0.138202
9.51 -0.174434
9.52 -0.213183
9.53 -0.254573
9.54 -0.297952
9.55 -0.343188
9.56 -0.389702
9.57 -0.43691
9.58 -0.484221
9.59 -0.530978
9.6 -0.576425
9.61 -0.619845
9.62 -0.66083
9.63 -0.69816
9.64 -0.731874
9.65 -0.761271
9.66 -0.785732
9.67 -0.80561
9.68 -0.819939
9.69 -0.829339
9.7 -0.833859
9.71 -0.833219
9.72 -0.82846
9.73 -0.819426
9.74 -0.806907
9.75 -0.791567
9.76 -0.773613
9.77 -0.754052
9.78 -0.733307
9.79 -0.711991
9.8 -0.690635
9.81 -0.669777
9.82 -0.649712
9.83 -0.630805
9.84 -0.613325
9.85 -0.597229
9.86 -0.582808
9.87 -0.569797
9.88 -0.558115
9.89 -0.547673
9.9 -0.538084
9.91 -0.529186
9.92 -0.520638
9.93 -0.512165
9.94 -0.503474
9.95 -0.494375
9.96 -0.484617
9.97 -0.474078
9.98 -0.462745
9.99 -0.450429
10 -0.437346
10.01 -0.423519
10.02 -0.409092
10.03 -0.3943
10.04 -0.379321
10.05 -0.364406
10.06 -0.349778
10.07 -0.335685
10.08 -0.322223
10.09 -0.309641
10.1 -0.297927
10.11 -0.287079
10.12 -0.277135
10.13 -0.267827
10.14 -0.259012
10.15 -0.250378
10.16 -0.241596
10.17 -0.232182
10.18 -0.221828
10.19 -0.20998
10.2 -0.19617
10.21 -0.180198
10.22 -0.161174
10.23 -0.139252
10.24 -0.113993
10.25 -0.085038
10.26 -0.0527682
10.27 -0.0166511
10.28 0.0227286
10.29 0.0651395
10.3 0.110495
10.31 0.157921
10.32 0.207105
10.33 0.257277
10.34 0.307741
10.35 0.357694
10.36 0.406494
10.37 0.453238
10.38 0.497213
10.39 0.538067
10.4 0.574434
10.41 0.606588
10.42 0.633785
10.43 0.655531
10.44 0.672291
10.45 0.683093
10.46 0.688763
10.47 0.689356
10.48 0.684729
10.49 0.675962
10.5 0.662922
10.51 0.646485
10.52 0.627291
10.53 0.605603
10.54 0.58239
10.55 0.558068
10.56 0.533245
10.57 0.508424
10.58 0.484132
10.59 0.460645
10.6 0.438339
10.61 0.417473
10.62 0.398028
10.63 0.380351
10.64 0.364191
10.65 0.349546
10.66 0.336397
10.67 0.3244
10.68 0.313536
10.69 0.30349
10.7 0.294055
10.71 0.285088
10.72 0.276346
10.73 0.267699
10.74 0.259024
10.75 0.250252
10.76 0.241326
10.77 0.232281
10.78 0.22316
10.79 0.214055
10.8 0.205075
10.81 0.196418
10.82 0.188195
10.83 0.180605
10.84 0.173874
10.85 0.168053
10.86 0.163472
10.87 0.160126
10.88 0.158121
10.89 0.157687
10.9 0.158634
10.91 0.16116
10.92 0.165129
10.93 0.170406
10.94 0.177094
10.95 0.18483
10.96 0.193572
10.97 0.203117
10.98 0.213212
10.99 0.223726
11 0.234375
11.01 0.244952
11.02 0.255219
11.03 0.265007
11.04 0.273987
11.05 0.282052
11.06 0.288984
11.07 0.294461
11.08 0.298501
11.09 0.300682
11.1 0.300967
11.11 0.299253
11.12 0.295044
11.13 0.288579
11.14 0.279417
11.15 0.267492
11.16 0.252918
11.17 0.234999
11.18 0.214251
11.19 0.190343
11.2 0.16318
11.21 0.133128
11.22 0.099699
11.23 0.0634673
11.24 0.0244716
11.25 -0.0172726
11.26 -0.0611611
11.27 -0.107197
11.28 -0.154817
11.29 -0.203612
11.3 -0.253237
11.31 -0.303114
11.32 -0.352754
11.33 -0.40165
11.34 -0.449392
11.35 -0.495188
11.36 -0.538925
11.37 -0.579965
11.38 -0.617899
11.39 -0.652755
11.4 -0.683631
11.41 -0.710967
11.42 -0.734464
11.43 -0.753875
11.44 -0.769758
11.45 -0.78165
11.46 -0.790176
11.47 -0.795564
11.48 -0.79778
11.49 -0.797594
11.5 -0.795028
11.51 -0.790581
11.52 -0.784662
11.53 -0.777379
11.54 -0.769229
11.55 -0.760353
11.56 -0.750949
11.57 -0.74118
11.58 -0.731043
11.59 -0.720598
11.6 -0.709761
11.61 -0.698396
11.62 -0.686418
11.63 -0.673497
11.64 -0.659533
11.65 -0.644288
11.66 -0.627391
11.67 -0.608878
11.68 -0.588314
11.69 -0.565723
11.7 -0.541102
11.71 -0.514117
11.72 -0.485194
11.73 -0.454218
11.74 -0.421441
11.75 -0.387244
11.76 -0.35169
11.77 -0.315372
11.78 -0.278615
11.79 -0.241856
11.8 -0.205492
11.81 -0.170084
11.82 -0.135902
11.83 -0.103346
11.84 -0.0728912
11.85 -0.0445041
11.86 -0.0187214
11.87 0.00458237
11.88 0.0254213
11.89 0.0435124
11.9 0.0593924
11.91 0.0729705
11.92 0.0846005
11.93 0.0946885
11.94 0.103314
11.95 0.111063
11.96 0.11819
11.97 0.125032
11.98 0.131891
11.99 0.139055
12 0.146662
12.01 0.154851
12.02 0.163704
12.03 0.173107
12.04 0.18302
12.05 0.193199
12.06 0.203394
12.07 0.213249
12.08 0.222468
12.09 0.230534
12.1 0.237098
12.11 0.241861
12.12 0.244059
12.13 0.243781
12.14 0.240451
12.15 0.233858
12.16 0.224175
12.17 0.210692
12.18 0.194069
12.19 0.1742
12.2 0.15118
12.21 0.125662
12.22 0.0976336
12.23 0.0678418
12.24 0.0367394
12.25 0.00478802
12.26 -0.0273695
12.27 -0.0591641
12.28 -0.0900777
12.29 -0.11967
12.3 -0.147208
12.31 -0.172637
12.32 -0.195359
12.33 -0.215179
12.34 -0.232187
12.35 -0.24566
12.36 -0.256208
12.37 -0.263609
12.38 -0.267894
12.39 -0.269556
12.4 -0.268326
12.41 -0.264816
12.42 -0.259175
12.43 -0.251489
12.44 -0.242241
12.45 -0.231405
12.46 -0.219296
12.47 -0.206073
12.48 -0.191698
12.49 -0.176416
12.5 -0.160143
12.51 -0.142928
12.52 -0.124833
12.53 -0.105661
12.54 -0.0855855
12.55 -0.0645154
12.56 -0.0424691
12.57 -0.0196067
12.58 0.00410219
12.59 0.0283669
12.6 0.0529927
12.61 0.0776887
12.62 0.10212
12.63 0.125787
12.64 0.148315
12.65 0.169239
12.66 0.187789
12.67 0.203821
12.68 0.216437
12.69 0.225342
12.7 0.230348
12.71 0.230334
12.72 0.22588
12.73 0.216319
12.74 0.201619
12.75 0.18233
12.76 0.157726
12.77 0.12898
12.78 0.0962299
12.79 0.0598775
12.8 0.0209518
12.81 -0.0201854
12.82 -0.0624898
12.83 -0.105185
12.84 -0.147387
12.85 -0.188385
12.86 -0.227159
12.87 -0.263141
12.88 -0.295853
12.89 -0.324173
12.9 -0.348423
12.91 -0.367845
12.92 -0.382413
12.93 -0.392571
12.94 -0.397548
12.95 -0.398535
12.96 -0.395567
12.97 -0.389051
12.98 -0.379907
12.99 -0.368347
13 -0.355324
13.01 -0.341409
13.02 -0.327195
13.03 -0.313248
13.04 -0.300134
13.05 -0.288169
13.06 -0.277588
13.07 -0.268766
13.08 -0.261464
13.09 -0.25578
13.1 -0.251438
13.11 -0.248052
13.12 -0.245334
13.13 -0.242701
13.14 -0.239625
13.15 -0.23551
13.16 -0.22995
13.17 -0.222044
13.18 -0.211658
13.19 -0.198266
13.2 -0.181318
13.21 -0.161063
13.22 -0.136848
