# xPDFsuite Configuration #
[PDF]
wavelength = 0.1
dataformat = QA
inputfile = B3_Bronze-3nm_ss_016.chi
backgroundfile = B3_Li-bkg_DD155_two_ss_att.chi
mode = xray
bgscale = 0.985
composition = Ti O2
outputtype = gr
qmaxinst = 23.5
qmin = 0.1
qmax = 23.0
rmax = 40.0
rmin = 0.0
rstep = 0.01
rpoly = 0.9

[Misc]
inputdir = E:/Beamtime/PETRA-III_September-2019/BeamData/processed/Run1/B3/integration_20210218/chi/chi_w_sigmas/chi_scaled
savedir = E:/Beamtime/PETRA-III_September-2019/BeamData/processed/Run1/B3/integration_20210218
backgroundfilefull = E:/Beamtime/PETRA-III_September-2019/BeamData/processed/Run1/B3/integration_20210218/chi/chi_w_sigmas/chi_scaled/B3_Li-bkg_DD155_two_ss_att.chi

#### start data
#S 1
#L r($\AA$)  G($\AA^{-2}$)
0 0
0.01 0.00360328
0.02 0.00701469
0.03 0.0100401
0.04 0.0125062
0.05 0.0143303
0.06 0.0153045
0.07 0.0154939
0.08 0.0148122
0.09 0.0133206
0.1 0.0111302
0.11 0.00828622
0.12 0.00502139
0.13 0.0014683
0.14 -0.00215659
0.15 -0.00567273
0.16 -0.00885071
0.17 -0.0115664
0.18 -0.0136119
0.19 -0.0149044
0.2 -0.0153847
0.21 -0.014941
0.22 -0.0136935
0.23 -0.0116012
0.24 -0.0088314
0.25 -0.0055083
0.26 -0.00177964
0.27 0.00213403
0.28 0.00604012
0.29 0.00972598
0.3 0.0129999
0.31 0.0156312
0.32 0.0175357
0.33 0.0184599
0.34 0.0184053
0.35 0.017273
0.36 0.0149951
0.37 0.0116903
0.38 0.00725209
0.39 0.00189733
0.4 -0.00432736
0.41 -0.0112987
0.42 -0.0188238
0.43 -0.0268174
0.44 -0.035055
0.45 -0.0433987
0.46 -0.05167
0.47 -0.0597298
0.48 -0.0673575
0.49 -0.074456
0.5 -0.0808174
0.51 -0.0862724
0.52 -0.0907191
0.53 -0.0938045
0.54 -0.0955254
0.55 -0.0955391
0.56 -0.0936721
0.57 -0.0898061
0.58 -0.0834467
0.59 -0.0747119
0.6 -0.0631396
0.61 -0.0486947
0.62 -0.0313377
0.63 -0.0106954
0.64 0.0128271
0.65 0.0394852
0.66 0.0688794
0.67 0.100725
0.68 0.134777
0.69 0.170309
0.7 0.20686
0.71 0.243604
0.72 0.279806
0.73 0.314463
0.74 0.34691
0.75 0.375852
0.76 0.400712
0.77 0.420595
0.78 0.434436
0.79 0.442269
0.8 0.442684
0.81 0.436229
0.82 0.422507
0.83 0.40146
0.84 0.374087
0.85 0.340047
0.86 0.300994
0.87 0.257539
0.88 0.210886
0.89 0.162424
0.9 0.113391
0.91 0.0652149
0.92 0.0192482
0.93 -0.0231741
0.94 -0.061316
0.95 -0.0934727
0.96 -0.119826
0.97 -0.139424
0.98 -0.152303
0.99 -0.15899
1 -0.159235
1.01 -0.154665
1.02 -0.145838
1.03 -0.134288
1.04 -0.121424
1.05 -0.108875
1.06 -0.0981211
1.07 -0.090967
1.08 -0.0887375
1.09 -0.0924921
1.1 -0.103936
1.11 -0.122801
1.12 -0.150345
1.13 -0.18586
1.14 -0.228886
1.15 -0.27897
1.16 -0.334103
1.17 -0.393169
1.18 -0.453764
1.19 -0.513842
1.2 -0.570702
1.21 -0.622427
1.22 -0.665636
1.23 -0.698873
1.24 -0.719854
1.25 -0.726179
1.26 -0.718073
1.27 -0.692414
1.28 -0.651001
1.29 -0.593251
1.3 -0.519763
1.31 -0.433219
1.32 -0.33376
1.33 -0.225581
1.34 -0.110797
1.35 0.0071361
1.36 0.124959
1.37 0.238627
1.38 0.345339
1.39 0.441275
1.4 0.523313
1.41 0.589977
1.42 0.636579
1.43 0.66436
1.44 0.670515
1.45 0.655392
1.46 0.620328
1.47 0.564033
1.48 0.490907
1.49 0.401385
1.5 0.299127
1.51 0.187318
1.52 0.0687779
1.53 -0.0523275
1.54 -0.172658
1.55 -0.288665
1.56 -0.397477
1.57 -0.495243
1.58 -0.58098
1.59 -0.651134
1.6 -0.705526
1.61 -0.743357
1.62 -0.76331
1.63 -0.767722
1.64 -0.755498
1.65 -0.7297
1.66 -0.691722
1.67 -0.643361
1.68 -0.587833
1.69 -0.526807
1.7 -0.463397
1.71 -0.399717
1.72 -0.338134
1.73 -0.280133
1.74 -0.227963
1.75 -0.18199
1.76 -0.143219
1.77 -0.111991
1.78 -0.0874643
1.79 -0.070039
1.8 -0.0577494
1.81 -0.0497959
1.82 -0.0445672
1.83 -0.040446
1.84 -0.0357259
1.85 -0.0289472
1.86 -0.0185147
1.87 -0.00318757
1.88 0.017598
1.89 0.0452755
1.9 0.0791259
1.91 0.119613
1.92 0.165888
1.93 0.216876
1.94 0.271668
1.95 0.328269
1.96 0.385041
1.97 0.439901
1.98 0.491036
1.99 0.535777
2 0.573068
2.01 0.600156
2.02 0.61615
2.03 0.619976
2.04 0.609692
2.05 0.586459
2.06 0.548511
2.07 0.497476
2.08 0.433893
2.09 0.358289
2.1 0.273322
2.11 0.179626
2.12 0.0801715
2.13 -0.0231534
2.14 -0.127941
2.15 -0.231916
2.16 -0.33239
2.17 -0.427534
2.18 -0.515147
2.19 -0.593019
2.2 -0.660619
2.21 -0.714849
2.22 -0.75649
2.23 -0.784053
2.24 -0.797073
2.25 -0.796745
2.26 -0.781154
2.27 -0.753096
2.28 -0.712267
2.29 -0.659922
2.3 -0.597921
2.31 -0.526418
2.32 -0.448196
2.33 -0.364154
2.34 -0.276201
2.35 -0.186012
2.36 -0.0951846
2.37 -0.00535935
2.38 0.0817828
2.39 0.164769
2.4 0.242462
2.41 0.312805
2.42 0.375601
2.43 0.428904
2.44 0.472348
2.45 0.505428
2.46 0.526599
2.47 0.536951
2.48 0.534987
2.49 0.521738
2.5 0.497469
2.51 0.462011
2.52 0.417329
2.53 0.363264
2.54 0.301944
2.55 0.234547
2.56 0.162533
2.57 0.0879699
2.58 0.0125085
2.59 -0.0618159
2.6 -0.133165
2.61 -0.199365
2.62 -0.259309
2.63 -0.310227
2.64 -0.3518
2.65 -0.382392
2.66 -0.400857
2.67 -0.407775
2.68 -0.401051
2.69 -0.382741
2.7 -0.352483
2.71 -0.31125
2.72 -0.260966
2.73 -0.201929
2.74 -0.137125
2.75 -0.0679168
2.76 0.00339565
2.77 0.0747994
2.78 0.143915
2.79 0.209132
2.8 0.268255
2.81 0.319799
2.82 0.362924
2.83 0.395521
2.84 0.418391
2.85 0.430253
2.86 0.43185
2.87 0.423947
2.88 0.406596
2.89 0.382092
2.9 0.351079
2.91 0.315708
2.92 0.27762
2.93 0.238609
2.94 0.20042
2.95 0.164903
2.96 0.133357
2.97 0.106955
2.98 0.0870797
2.99 0.073593
3 0.0676678
3.01 0.0684679
3.02 0.0757706
3.03 0.0890317
3.04 0.106704
3.05 0.128026
3.06 0.151106
3.07 0.174547
3.08 0.196587
3.09 0.215946
3.1 0.230545
3.11 0.239697
3.12 0.242026
3.13 0.236582
3.14 0.223577
3.15 0.201549
3.16 0.171948
3.17 0.134597
3.18 0.0903848
3.19 0.0407045
3.2 -0.0138483
3.21 -0.0712204
3.22 -0.130219
3.23 -0.189173
3.24 -0.246755
3.25 -0.301203
3.26 -0.351758
3.27 -0.396992
3.28 -0.436296
3.29 -0.469427
3.3 -0.495432
3.31 -0.515272
3.32 -0.528576
3.33 -0.536315
3.34 -0.539295
3.35 -0.538114
3.36 -0.534239
3.37 -0.528454
3.38 -0.522004
3.39 -0.515793
3.4 -0.510805
3.41 -0.507536
3.42 -0.506721
3.43 -0.508381
3.44 -0.512537
3.45 -0.519026
3.46 -0.527122
3.47 -0.536245
3.48 -0.545329
3.49 -0.553358
3.5 -0.558985
3.51 -0.561343
3.52 -0.5586
3.53 -0.550238
3.54 -0.535019
3.55 -0.511918
3.56 -0.481124
3.57 -0.441039
3.58 -0.392887
3.59 -0.336341
3.6 -0.271979
3.61 -0.20117
3.62 -0.124118
3.63 -0.043031
3.64 0.0410039
3.65 0.12619
3.66 0.210941
3.67 0.293228
3.68 0.371767
3.69 0.444631
3.7 0.510461
3.71 0.568466
3.72 0.616507
3.73 0.655154
3.74 0.682876
3.75 0.699933
3.76 0.706661
3.77 0.702283
3.78 0.68865
3.79 0.66539
3.8 0.634013
3.81 0.595513
3.82 0.550474
3.83 0.500694
3.84 0.446742
3.85 0.390072
3.86 0.331614
3.87 0.272305
3.88 0.213017
3.89 0.154547
3.9 0.0974587
3.91 0.0422655
3.92 -0.010474
3.93 -0.0607089
3.94 -0.107789
3.95 -0.151853
3.96 -0.192612
3.97 -0.229787
3.98 -0.263579
3.99 -0.293273
4 -0.319197
4.01 -0.340918
4.02 -0.358121
4.03 -0.370973
4.04 -0.378463
4.05 -0.381096
4.06 -0.378265
4.07 -0.369789
4.08 -0.355976
4.09 -0.33595
4.1 -0.310658
4.11 -0.279781
4.12 -0.243758
4.13 -0.203264
4.14 -0.158332
4.15 -0.110224
4.16 -0.0594059
4.17 -0.0069252
4.18 0.0462886
4.19 0.0991802
4.2 0.150822
4.21 0.200058
4.22 0.246017
4.23 0.287986
4.24 0.324719
4.25 0.356268
4.26 0.38152
4.27 0.400609
4.28 0.413458
4.29 0.419648
4.3 0.420158
4.31 0.414668
4.32 0.404254
4.33 0.389461
4.34 0.370864
4.35 0.34961
4.36 0.326231
4.37 0.301789
4.38 0.276987
4.39 0.252607
4.4 0.229177
4.41 0.207407
4.42 0.18749
4.43 0.169751
4.44 0.154361
4.45 0.141086
4.46 0.130094
4.47 0.120827
4.48 0.113076
4.49 0.106412
4.5 0.100354
4.51 0.0944868
4.52 0.0883589
4.53 0.0815766
4.54 0.0738012
4.55 0.0648893
4.56 0.054516
4.57 0.0428595
4.58 0.0298773
4.59 0.01581
4.6 0.000971544
4.61 -0.0143068
4.62 -0.0295364
4.63 -0.0442132
4.64 -0.057806
4.65 -0.0698751
4.66 -0.0796816
4.67 -0.087073
4.68 -0.0913631
4.69 -0.0924083
4.7 -0.0900591
4.71 -0.08388
4.72 -0.0743186
4.73 -0.0610577
4.74 -0.0445919
4.75 -0.025187
4.76 -0.00305448
4.77 0.0210976
4.78 0.0470253
4.79 0.0740447
4.8 0.101705
4.81 0.129492
4.82 0.156972
4.83 0.183653
4.84 0.209267
4.85 0.233513
4.86 0.256119
4.87 0.277128
4.88 0.296234
4.89 0.313684
4.9 0.329447
4.91 0.34362
4.92 0.356467
4.93 0.367954
4.94 0.378423
4.95 0.387933
4.96 0.396608
4.97 0.404578
4.98 0.411765
4.99 0.418256
5 0.423912
5.01 0.428604
5.02 0.432231
5.03 0.434393
5.04 0.43505
5.05 0.433785
5.06 0.430373
5.07 0.424673
5.08 0.416141
5.09 0.404957
5.1 0.390678
5.11 0.373367
5.12 0.353086
5.13 0.32959
5.14 0.303393
5.15 0.274373
5.16 0.242994
5.17 0.20957
5.18 0.174351
5.19 0.137924
5.2 0.100592
5.21 0.0628878
5.22 0.0252145
5.23 -0.0119529
5.24 -0.0483071
5.25 -0.0833536
5.26 -0.116909
5.27 -0.148699
5.28 -0.178431
5.29 -0.206191
5.3 -0.231607
5.31 -0.254928
5.32 -0.276083
5.33 -0.295093
5.34 -0.312249
5.35 -0.327402
5.36 -0.340952
5.37 -0.352933
5.38 -0.363481
5.39 -0.372834
5.4 -0.380921
5.41 -0.388013
5.42 -0.394088
5.43 -0.399197
5.44 -0.403424
5.45 -0.406631
5.46 -0.408943
5.47 -0.410243
5.48 -0.410517
5.49 -0.409788
5.5 -0.407891
5.51 -0.404969
5.52 -0.400918
5.53 -0.395811
5.54 -0.389728
5.55 -0.382648
5.56 -0.37479
5.57 -0.366195
5.58 -0.357056
5.59 -0.347531
5.6 -0.337779
5.61 -0.327995
5.62 -0.318363
5.63 -0.30905
5.64 -0.300207
5.65 -0.292031
5.66 -0.284564
5.67 -0.278007
5.68 -0.272356
5.69 -0.267674
5.7 -0.264039
5.71 -0.261339
5.72 -0.259681
5.73 -0.258908
5.74 -0.258994
5.75 -0.259888
5.76 -0.261434
5.77 -0.263629
5.78 -0.266299
5.79 -0.269377
5.8 -0.272762
5.81 -0.27634
5.82 -0.280027
5.83 -0.283709
5.84 -0.287286
5.85 -0.290636
5.86 -0.293675
5.87 -0.296204
5.88 -0.298162
5.89 -0.299352
5.9 -0.299609
5.91 -0.298839
5.92 -0.296687
5.93 -0.293162
5.94 -0.287947
5.95 -0.280902
5.96 -0.271966
5.97 -0.260741
5.98 -0.247423
5.99 -0.231713
6 -0.2137
6.01 -0.193481
6.02 -0.170929
6.03 -0.146486
6.04 -0.120162
6.05 -0.0923862
6.06 -0.0635034
6.07 -0.0338891
6.08 -0.0040665
6.09 0.0254567
6.1 0.0541502
6.11 0.0815079
6.12 0.106838
6.13 0.129889
6.14 0.149846
6.15 0.166584
6.16 0.179717
6.17 0.188802
6.18 0.194129
6.19 0.195129
6.2 0.192384
6.21 0.185945
6.22 0.176075
6.23 0.163506
6.24 0.148446
6.25 0.131858
6.26 0.114329
6.27 0.0966833
6.28 0.0796339
6.29 0.0641829
6.3 0.0508633
6.31 0.0405303
6.32 0.0338667
6.33 0.0310848
6.34 0.033278
6.35 0.0400209
6.36 0.0518794
6.37 0.0687405
6.38 0.0901771
6.39 0.116453
6.4 0.146467
6.41 0.180015
6.42 0.216209
6.43 0.254222
6.44 0.293267
6.45 0.332332
6.46 0.370461
6.47 0.406716
6.48 0.440322
6.49 0.470069
6.5 0.495714
6.51 0.516082
6.52 0.530988
6.53 0.540098
6.54 0.542671
6.55 0.539355
6.56 0.529425
6.57 0.513638
6.58 0.492211
6.59 0.465293
6.6 0.433964
6.61 0.398283
6.62 0.359399
6.63 0.317897
6.64 0.274506
6.65 0.2301
6.66 0.185345
6.67 0.140991
6.68 0.0976688
6.69 0.0560459
6.7 0.0164208
6.71 -0.0204099
6.72 -0.0544794
6.73 -0.0853621
6.74 -0.112858
6.75 -0.137175
6.76 -0.15777
6.77 -0.175243
6.78 -0.189426
6.79 -0.200522
6.8 -0.208902
6.81 -0.214408
6.82 -0.217656
6.83 -0.218649
6.84 -0.217686
6.85 -0.215054
6.86 -0.210765
6.87 -0.205211
6.88 -0.198419
6.89 -0.1906
6.9 -0.181904
6.91 -0.172371
6.92 -0.162212
6.93 -0.151463
6.94 -0.140275
6.95 -0.128756
6.96 -0.117012
6.97 -0.105193
6.98 -0.0934381
6.99 -0.0819036
7 -0.0707414
7.01 -0.060172
7.02 -0.0502935
7.03 -0.0413876
7.04 -0.0335396
7.05 -0.0269165
7.06 -0.0217361
7.07 -0.0179504
7.08 -0.0158454
7.09 -0.0152805
7.1 -0.0163118
7.11 -0.0189403
7.12 -0.0229254
7.13 -0.0283127
7.14 -0.0347363
7.15 -0.0420334
7.16 -0.0499205
7.17 -0.0580767
7.18 -0.066176
7.19 -0.0738913
7.2 -0.0808687
7.21 -0.0867487
7.22 -0.0913393
7.23 -0.0941106
7.24 -0.0950876
7.25 -0.093919
7.26 -0.0904936
7.27 -0.0848781
7.28 -0.0767525
7.29 -0.0665136
7.3 -0.0540674
7.31 -0.0396841
7.32 -0.0236631
7.33 -0.00613888
7.34 0.0123739
7.35 0.0316127
7.36 0.0511296
7.37 0.0705552
7.38 0.0894287
7.39 0.107453
7.4 0.124152
7.41 0.139269
7.42 0.152554
7.43 0.163587
7.44 0.172458
7.45 0.178756
7.46 0.182626
7.47 0.184042
7.48 0.182909
7.49 0.179602
7.5 0.173992
7.51 0.166514
7.52 0.15734
7.53 0.146689
7.54 0.13497
7.55 0.122357
7.56 0.109257
7.57 0.0959284
7.58 0.0826807
7.59 0.0697475
7.6 0.0574543
7.61 0.0459365
7.62 0.0354219
7.63 0.0260894
7.64 0.0179455
7.65 0.0112869
7.66 0.0059515
7.67 0.00206979
7.68 -0.00037968
7.69 -0.00153145
7.7 -0.00126279
7.71 0.000139844
7.72 0.00267777
7.73 0.00618696
7.74 0.0104874
7.75 0.015504
7.76 0.0209783
7.77 0.0267804
7.78 0.0327
7.79 0.0385613
7.8 0.0441387
7.81 0.0492845
7.82 0.0537553
7.83 0.0573948
7.84 0.0600588
7.85 0.0614715
7.86 0.0616448
7.87 0.0602937
7.88 0.0574228
7.89 0.0529655
7.9 0.0467545
7.91 0.038979
7.92 0.0294611
7.93 0.0184245
7.94 0.00594094
7.95 -0.00791171
7.96 -0.0228259
7.97 -0.0387216
7.98 -0.0552505
7.99 -0.0721882
8 -0.0892411
8.01 -0.106138
8.02 -0.122534
8.03 -0.13821
8.04 -0.152879
8.05 -0.166262
8.06 -0.178295
8.07 -0.188581
8.08 -0.197244
8.09 -0.204108
8.1 -0.209161
8.11 -0.212588
8.12 -0.214238
8.13 -0.214515
8.14 -0.213482
8.15 -0.2114
8.16 -0.208562
8.17 -0.205164
8.18 -0.201546
8.19 -0.197946
8.2 -0.194622
8.21 -0.19175
8.22 -0.189576
8.23 -0.188121
8.24 -0.187519
8.25 -0.187724
8.26 -0.188647
8.27 -0.190209
8.28 -0.192143
8.29 -0.194229
8.3 -0.196139
8.31 -0.197566
8.32 -0.198056
8.33 -0.197368
8.34 -0.194963
8.35 -0.190613
8.36 -0.184016
8.37 -0.174721
8.38 -0.162834
8.39 -0.147859
8.4 -0.130037
8.41 -0.109333
8.42 -0.085742
8.43 -0.0597502
8.44 -0.0313313
8.45 -0.00113204
8.46 0.0305111
8.47 0.0631002
8.48 0.0960686
8.49 0.128855
8.5 0.16092
8.51 0.191701
8.52 0.220614
8.53 0.2474
8.54 0.271237
8.55 0.292207
8.56 0.309834
8.57 0.32395
8.58 0.334747
8.59 0.341732
8.6 0.34556
8.61 0.34613
8.62 0.343805
8.63 0.339054
8.64 0.331996
8.65 0.323359
8.66 0.313427
8.67 0.302736
8.68 0.291713
8.69 0.280794
8.7 0.270324
8.71 0.26068
8.72 0.252092
8.73 0.244706
8.74 0.23877
8.75 0.234141
8.76 0.230939
8.77 0.228947
8.78 0.227997
8.79 0.227908
8.8 0.22832
8.81 0.228961
8.82 0.22946
8.83 0.229492
8.84 0.228641
8.85 0.226697
8.86 0.22318
8.87 0.217979
8.88 0.21084
8.89 0.201504
8.9 0.190098
8.91 0.176272
8.92 0.160342
8.93 0.142294
8.94 0.122253
8.95 0.100596
8.96 0.0773736
8.97 0.0531101
8.98 0.0280737
8.99 0.00267941
9 -0.0226862
9.01 -0.0475419
9.02 -0.0715559
9.03 -0.0942681
9.04 -0.11528
9.05 -0.134392
9.06 -0.150962
9.07 -0.165084
9.08 -0.176307
9.09 -0.184534
9.1 -0.189824
9.11 -0.191756
9.12 -0.190797
9.13 -0.186728
9.14 -0.179842
9.15 -0.17042
9.16 -0.15848
9.17 -0.144633
9.18 -0.129015
9.19 -0.112138
9.2 -0.0943903
9.21 -0.0761714
9.22 -0.0579357
9.23 -0.0401211
9.24 -0.0231149
9.25 -0.00726494
9.26 0.0069653
9.27 0.019483
9.28 0.0297987
9.29 0.037927
9.3 0.0437124
9.31 0.0469702
9.32 0.0479724
9.33 0.0464773
9.34 0.0428935
9.35 0.03732
9.36 0.0299514
9.37 0.021209
9.38 0.0112213
9.39 0.000462502
9.4 -0.0108064
9.41 -0.0222506
9.42 -0.0335941
9.43 -0.0445236
9.44 -0.05488
9.45 -0.064459
9.46 -0.0731383
9.47 -0.0809385
9.48 -0.0877258
9.49 -0.0937093
9.5 -0.0989299
9.51 -0.103577
9.52 -0.107863
9.53 -0.111995
9.54 -0.116225
9.55 -0.120795
9.56 -0.12593
9.57 -0.131776
9.58 -0.13859
9.59 -0.146336
9.6 -0.15515
9.61 -0.164938
9.62 -0.175579
9.63 -0.186954
9.64 -0.198735
9.65 -0.210649
9.66 -0.222305
9.67 -0.233333
9.68 -0.243199
9.69 -0.25163
9.7 -0.25799
9.71 -0.262039
9.72 -0.263432
9.73 -0.26168
9.74 -0.256932
9.75 -0.248649
9.76 -0.237164
9.77 -0.222474
9.78 -0.204652
9.79 -0.184286
9.8 -0.16144
9.81 -0.136886
9.82 -0.111069
9.83 -0.084621
9.84 -0.0581759
9.85 -0.0324658
9.86 -0.00803488
9.87 0.0144595
9.88 0.0343981
9.89 0.0515772
9.9 0.0650979
9.91 0.075213
9.92 0.0814796
9.93 0.083875
9.94 0.0827335
9.95 0.0777321
9.96 0.0697003
9.97 0.0587259
9.98 0.0453737
9.99 0.0302335
10 0.0137033
10.01 -0.00348215
10.02 -0.0208287
10.03 -0.0377603
10.04 -0.0538504
10.05 -0.0685194
10.06 -0.0816153
10.07 -0.0926893
10.08 -0.101675
10.09 -0.108538
10.1 -0.113089
10.11 -0.115691
10.12 -0.116274
10.13 -0.115218
10.14 -0.112768
10.15 -0.109147
10.16 -0.104767
10.17 -0.0998361
10.18 -0.0946807
10.19 -0.0895092
10.2 -0.0845212
10.21 -0.079809
10.22 -0.0754764
10.23 -0.0714782
10.24 -0.0677643
10.25 -0.0642125
10.26 -0.0606576
10.27 -0.0568788
10.28 -0.0526833
10.29 -0.0478395
10.3 -0.042104
10.31 -0.0353936
10.32 -0.0273908
10.33 -0.0181825
10.34 -0.00765658
10.35 0.00414614
10.36 0.0170259
10.37 0.030952
10.38 0.0455327
10.39 0.060538
10.4 0.0755947
10.41 0.0903721
10.42 0.104396
10.43 0.11741
10.44 0.128971
10.45 0.138799
10.46 0.146753
10.47 0.152402
10.48 0.155961
10.49 0.157203
10.5 0.156332
10.51 0.153574
10.52 0.149034
10.53 0.143255
10.54 0.136506
10.55 0.129319
10.56 0.122131
10.57 0.115478
10.58 0.109727
10.59 0.105437
10.6 0.102866
10.61 0.102288
10.62 0.104055
10.63 0.107994
10.64 0.114385
10.65 0.122861
10.66 0.133251
10.67 0.145274
10.68 0.158374
10.69 0.172161
10.7 0.185995
10.71 0.19933
10.72 0.211494
10.73 0.222077
10.74 0.230228
10.75 0.235775
10.76 0.238181
10.77 0.237076
10.78 0.232592
10.79 0.224089
10.8 0.212184
10.81 0.196766
10.82 0.178154
10.83 0.156923
10.84 0.133209
10.85 0.107897
10.86 0.0814163
10.87 0.0544584
10.88 0.0276094
10.89 0.00157986
10.9 -0.0231919
10.91 -0.0460675
10.92 -0.0666513
10.93 -0.0847171
10.94 -0.0996793
10.95 -0.111787
10.96 -0.120664
10.97 -0.126525
10.98 -0.129554
10.99 -0.129708
11 -0.127591
11.01 -0.123259
11.02 -0.117233
11.03 -0.109859
11.04 -0.101442
11.05 -0.0924239
11.06 -0.0830647
11.07 -0.0736795
11.08 -0.0644781
11.09 -0.0556644
11.1 -0.0473038
11.11 -0.0395258
11.12 -0.0322809
11.13 -0.0255532
11.14 -0.0192874
11.15 -0.0133524
11.16 -0.00767892
11.17 -0.00212629
11.18 0.003393
11.19 0.00896548
11.2 0.0146323
11.21 0.0204271
11.22 0.0263096
11.23 0.0322251
11.24 0.0380621
11.25 0.0437058
11.26 0.0489318
11.27 0.0536162
11.28 0.0575198
11.29 0.0604362
11.3 0.0622644
11.31 0.0626547
11.32 0.0616803
11.33 0.0591213
11.34 0.0549791
11.35 0.0493463
11.36 0.0421155
11.37 0.033625
11.38 0.0239274
11.39 0.0133263
11.4 0.00210192
11.41 -0.00946191
11.42 -0.0210091
11.43 -0.0321901
11.44 -0.0426763
11.45 -0.0521898
11.46 -0.0603207
11.47 -0.0670034
11.48 -0.0718535
11.49 -0.0748703
11.5 -0.075983
11.51 -0.0750489
11.52 -0.0723493
11.53 -0.0677765
11.54 -0.0616875
11.55 -0.0542638
11.56 -0.045734
11.57 -0.0364851
11.58 -0.0267592
11.59 -0.0169356
11.6 -0.0073069
11.61 0.00178976
11.62 0.0101604
11.63 0.0174311
11.64 0.0235441
11.65 0.0282973
11.66 0.0315651
11.67 0.0334408
11.68 0.0337072
11.69 0.0326416
11.7 0.0302356
11.71 0.0266336
11.72 0.0220698
11.73 0.0165997
11.74 0.0105441
11.75 0.00404228
11.76 -0.00268639
11.77 -0.00946104
11.78 -0.01609
11.79 -0.0224442
11.8 -0.0283648
11.81 -0.0337499
11.82 -0.0385454
11.83 -0.0426086
11.84 -0.0459944
11.85 -0.0486043
11.86 -0.0504689
11.87 -0.0516113
11.88 -0.0519729
11.89 -0.0516672
11.9 -0.050637
11.91 -0.048955
11.92 -0.0466474
11.93 -0.0436881
11.94 -0.0401721
11.95 -0.0360506
11.96 -0.0313976
11.97 -0.0262324
11.98 -0.0205577
11.99 -0.014464
12 -0.00794518
12.01 -0.00110309
12.02 0.0060058
12.03 0.0133024
12.04 0.0206827
12.05 0.0280442
12.06 0.0352746
12.07 0.042256
12.08 0.0488477
12.09 0.0549777
12.1 0.0604437
12.11 0.0652249
12.12 0.0691881
12.13 0.072241
12.14 0.0744096
12.15 0.0755058
12.16 0.0756714
12.17 0.0748385
12.18 0.0730505
12.19 0.0704222
12.2 0.0669101
12.21 0.0627249
12.22 0.0578994
12.23 0.0525626
12.24 0.0468382
12.25 0.0407956
12.26 0.0345719
12.27 0.0282356
12.28 0.0218695
12.29 0.0155272
12.3 0.00925776
12.31 0.00307433
12.32 -0.00300564
12.33 -0.00899498
12.34 -0.0149114
12.35 -0.0207765
12.36 -0.0266229
12.37 -0.0324765
12.38 -0.0383589
12.39 -0.0442805
12.4 -0.0502417
12.41 -0.0562205
12.42 -0.0621793
12.43 -0.0680611
12.44 -0.0737943
12.45 -0.0792666
12.46 -0.0844066
12.47 -0.0890385
12.48 -0.0930887
12.49 -0.0964204
12.5 -0.098875
12.51 -0.100441
12.52 -0.100887
12.53 -0.100281
12.54 -0.0985319
12.55 -0.0956118
12.56 -0.0916515
12.57 -0.0865575
12.58 -0.0805824
12.59 -0.0737891
12.6 -0.0663508
12.61 -0.0584829
12.62 -0.0503491
12.63 -0.0421984
12.64 -0.0342385
12.65 -0.0266947
12.66 -0.0197172
12.67 -0.01359
12.68 -0.00833939
12.69 -0.0041652
12.7 -0.00111541
12.71 0.000831049
12.72 0.00154703
12.73 0.0012437
12.74 -9.60373e-05
12.75 -0.00228547
12.76 -0.00515308
12.77 -0.00855661
12.78 -0.0122335
12.79 -0.0159909
12.8 -0.0195912
12.81 -0.0228385
12.82 -0.0254721
12.83 -0.0273912
