# xPDFsuite Configuration #
[PDF]
wavelength = 0.1
dataformat = QA
inputfile = B3_Bronze-3nm_ss_017.chi
backgroundfile = B3_Li-bkg_DD155_two_ss_att.chi
mode = xray
bgscale = 0.985
composition = Ti O2
outputtype = gr
qmaxinst = 23.5
qmin = 0.1
qmax = 23.0
rmax = 40.0
rmin = 0.0
rstep = 0.01
rpoly = 0.9

[Misc]
inputdir = E:/Beamtime/PETRA-III_September-2019/BeamData/processed/Run1/B3/integration_20210218/chi/chi_w_sigmas/chi_scaled
savedir = E:/Beamtime/PETRA-III_September-2019/BeamData/processed/Run1/B3/integration_20210218
backgroundfilefull = E:/Beamtime/PETRA-III_September-2019/BeamData/processed/Run1/B3/integration_20210218/chi/chi_w_sigmas/chi_scaled/B3_Li-bkg_DD155_two_ss_att.chi

#### start data
#S 1
#L r($\AA$)  G($\AA^{-2}$)
0 0
0.01 0.00434788
0.02 0.0084661
0.03 0.0121223
0.04 0.0151086
0.05 0.0173256
0.06 0.0185236
0.07 0.0187793
0.08 0.0179879
0.09 0.0162211
0.1 0.0136105
0.11 0.0102074
0.12 0.00629007
0.13 0.00201493
0.14 -0.00235926
0.15 -0.00661622
0.16 -0.0104823
0.17 -0.0138063
0.18 -0.0163388
0.19 -0.0179776
0.2 -0.0186491
0.21 -0.0182163
0.22 -0.0168198
0.23 -0.0144062
0.24 -0.0111731
0.25 -0.00726614
0.26 -0.00285837
0.27 0.00178656
0.28 0.00644214
0.29 0.0108535
0.3 0.0147925
0.31 0.0179858
0.32 0.0203313
0.33 0.0215315
0.34 0.0215881
0.35 0.0203883
0.36 0.0178585
0.37 0.0141439
0.38 0.0091343
0.39 0.00309314
0.4 -0.00390819
0.41 -0.0117061
0.42 -0.0200664
0.43 -0.028856
0.44 -0.0378142
0.45 -0.0467594
0.46 -0.0554747
0.47 -0.0638075
0.48 -0.0714852
0.49 -0.07843
0.5 -0.084412
0.51 -0.0892716
0.52 -0.092933
0.53 -0.0950431
0.54 -0.0956542
0.55 -0.0944464
0.56 -0.0912943
0.57 -0.0861218
0.58 -0.0784835
0.59 -0.0685364
0.6 -0.055868
0.61 -0.0404777
0.62 -0.0223515
0.63 -0.00116385
0.64 0.0226898
0.65 0.0494274
0.66 0.0786625
0.67 0.110116
0.68 0.143536
0.69 0.178239
0.7 0.213764
0.71 0.24933
0.72 0.284226
0.73 0.317479
0.74 0.348466
0.75 0.375918
0.76 0.399298
0.77 0.417739
0.78 0.43021
0.79 0.436764
0.8 0.436029
0.81 0.428562
0.82 0.41399
0.83 0.392277
0.84 0.364415
0.85 0.330106
0.86 0.290981
0.87 0.247669
0.88 0.201377
0.89 0.153477
0.9 0.105231
0.91 0.0580272
0.92 0.0132191
0.93 -0.0278793
0.94 -0.0645645
0.95 -0.0951448
0.96 -0.119853
0.97 -0.137768
0.98 -0.148974
0.99 -0.154042
1 -0.152785
1.01 -0.146866
1.02 -0.13691
1.03 -0.124496
1.04 -0.111065
1.05 -0.0983246
1.06 -0.0877396
1.07 -0.0811768
1.08 -0.0799488
1.09 -0.0851052
1.1 -0.0983708
1.11 -0.119397
1.12 -0.149438
1.13 -0.187699
1.14 -0.233655
1.15 -0.286773
1.16 -0.344951
1.17 -0.406973
1.18 -0.470343
1.19 -0.532924
1.2 -0.591904
1.21 -0.64533
1.22 -0.689694
1.23 -0.723543
1.24 -0.744547
1.25 -0.750273
1.26 -0.741015
1.27 -0.713606
1.28 -0.669971
1.29 -0.609574
1.3 -0.533104
1.31 -0.44337
1.32 -0.340608
1.33 -0.229151
1.34 -0.111233
1.35 0.00956567
1.36 0.12991
1.37 0.245591
1.38 0.353808
1.39 0.450647
1.4 0.53296
1.41 0.599312
1.42 0.644955
1.43 0.67127
1.44 0.675474
1.45 0.658032
1.46 0.620396
1.47 0.561388
1.48 0.485549
1.49 0.393449
1.5 0.288873
1.51 0.175104
1.52 0.0551103
1.53 -0.066931
1.54 -0.187565
1.55 -0.303257
1.56 -0.411147
1.57 -0.507368
1.58 -0.59107
1.59 -0.658729
1.6 -0.710317
1.61 -0.745151
1.62 -0.762059
1.63 -0.763518
1.64 -0.748604
1.65 -0.720496
1.66 -0.680712
1.67 -0.631193
1.68 -0.575162
1.69 -0.514442
1.7 -0.452078
1.71 -0.390204
1.72 -0.331164
1.73 -0.276302
1.74 -0.227843
1.75 -0.185953
1.76 -0.151516
1.77 -0.124699
1.78 -0.104505
1.79 -0.0911279
1.8 -0.082482
1.81 -0.0775948
1.82 -0.0747186
1.83 -0.0721981
1.84 -0.0681257
1.85 -0.0611383
1.86 -0.049554
1.87 -0.0321801
1.88 -0.00855534
1.89 0.0227615
1.9 0.0608337
1.91 0.106053
1.92 0.157394
1.93 0.21363
1.94 0.273693
1.95 0.335442
1.96 0.397082
1.97 0.456412
1.98 0.511535
1.99 0.559643
2 0.599704
2.01 0.628866
2.02 0.646283
2.03 0.650909
2.04 0.6408
2.05 0.617248
2.06 0.578504
2.07 0.526324
2.08 0.461325
2.09 0.384114
2.1 0.29744
2.11 0.202
2.12 0.100824
2.13 -0.00416368
2.14 -0.110531
2.15 -0.216008
2.16 -0.31791
2.17 -0.414446
2.18 -0.503451
2.19 -0.58277
2.2 -0.65191
2.21 -0.707847
2.22 -0.751384
2.23 -0.781077
2.24 -0.796486
2.25 -0.798784
2.26 -0.786078
2.27 -0.76109
2.28 -0.723474
2.29 -0.6744
2.3 -0.615641
2.31 -0.547226
2.32 -0.471846
2.33 -0.390264
2.34 -0.304272
2.35 -0.21548
2.36 -0.125306
2.37 -0.0354232
2.38 0.0526097
2.39 0.137301
2.4 0.217474
2.41 0.291104
2.42 0.357818
2.43 0.415634
2.44 0.464008
2.45 0.502285
2.46 0.528752
2.47 0.544315
2.48 0.547278
2.49 0.538507
2.5 0.518116
2.51 0.485734
2.52 0.443307
2.53 0.390479
2.54 0.329424
2.55 0.261295
2.56 0.187538
2.57 0.110393
2.58 0.0315108
2.59 -0.0468373
2.6 -0.122676
2.61 -0.193636
2.62 -0.258402
2.63 -0.313983
2.64 -0.359875
2.65 -0.394246
2.66 -0.415754
2.67 -0.424921
2.68 -0.419402
2.69 -0.401332
2.7 -0.370251
2.71 -0.32715
2.72 -0.274084
2.73 -0.211314
2.74 -0.142091
2.75 -0.0678689
2.76 0.00884826
2.77 0.0858526
2.78 0.160566
2.79 0.23119
2.8 0.295331
2.81 0.351342
2.82 0.398285
2.83 0.433851
2.84 0.458888
2.85 0.47199
2.86 0.473954
2.87 0.465606
2.88 0.447002
2.89 0.420635
2.9 0.38721
2.91 0.349065
2.92 0.307987
2.93 0.265929
2.94 0.224784
2.95 0.186557
2.96 0.15265
2.97 0.124326
2.98 0.103066
2.99 0.0887052
3 0.0824863
3.01 0.0834827
3.02 0.0914271
3.03 0.105697
3.04 0.124608
3.05 0.147295
3.06 0.171713
3.07 0.196335
3.08 0.219252
3.09 0.2391
3.1 0.253626
3.11 0.262135
3.12 0.263166
3.13 0.255736
3.14 0.240125
3.15 0.214813
3.16 0.181418
3.17 0.139814
3.18 0.0910215
3.19 0.036579
3.2 -0.0227759
3.21 -0.0848353
3.22 -0.148248
3.23 -0.211195
3.24 -0.272259
3.25 -0.329485
3.26 -0.382128
3.27 -0.428632
3.28 -0.468392
3.29 -0.501197
3.3 -0.526043
3.31 -0.544055
3.32 -0.554872
3.33 -0.559613
3.34 -0.559202
3.35 -0.554351
3.36 -0.546686
3.37 -0.537118
3.38 -0.527024
3.39 -0.517418
3.4 -0.509416
3.41 -0.503551
3.42 -0.500681
3.43 -0.500824
3.44 -0.50403
3.45 -0.510167
3.46 -0.518432
3.47 -0.528279
3.48 -0.538538
3.49 -0.548152
3.5 -0.555722
3.51 -0.560283
3.52 -0.559974
3.53 -0.554182
3.54 -0.541628
3.55 -0.521232
3.56 -0.493142
3.57 -0.455727
3.58 -0.410191
3.59 -0.356183
3.6 -0.294271
3.61 -0.225818
3.62 -0.151006
3.63 -0.0720465
3.64 0.0099964
3.65 0.0933465
3.66 0.176431
3.67 0.257284
3.68 0.33463
3.69 0.406612
3.7 0.471917
3.71 0.529784
3.72 0.578183
3.73 0.617665
3.74 0.646791
3.75 0.665827
3.76 0.675103
3.77 0.673899
3.78 0.663967
3.79 0.64495
3.8 0.618253
3.81 0.584781
3.82 0.545028
3.83 0.500642
3.84 0.452057
3.85 0.400575
3.86 0.346981
3.87 0.292021
3.88 0.236492
3.89 0.180972
3.9 0.125991
3.91 0.0719655
3.92 0.0193501
3.93 -0.0317151
3.94 -0.0807008
3.95 -0.127573
3.96 -0.171997
3.97 -0.213592
3.98 -0.252352
3.99 -0.287458
4 -0.318993
4.01 -0.346352
4.02 -0.369004
4.03 -0.386965
4.04 -0.398968
4.05 -0.405452
4.06 -0.405642
4.07 -0.399263
4.08 -0.386649
4.09 -0.366775
4.1 -0.340768
4.11 -0.308302
4.12 -0.269951
4.13 -0.226559
4.14 -0.178272
4.15 -0.126591
4.16 -0.0721525
4.17 -0.0162113
4.18 0.0401437
4.19 0.0956313
4.2 0.149261
4.21 0.199701
4.22 0.246051
4.23 0.287591
4.24 0.323019
4.25 0.352551
4.26 0.375096
4.27 0.390985
4.28 0.400302
4.29 0.402823
4.3 0.399739
4.31 0.390971
4.32 0.377784
4.33 0.360914
4.34 0.341167
4.35 0.319722
4.36 0.29735
4.37 0.275045
4.38 0.253549
4.39 0.233642
4.4 0.215649
4.41 0.200266
4.42 0.187389
4.43 0.17717
4.44 0.169526
4.45 0.163968
4.46 0.160365
4.47 0.157947
4.48 0.156241
4.49 0.154581
4.5 0.152419
4.51 0.149004
4.52 0.144015
4.53 0.13692
4.54 0.127423
4.55 0.115545
4.56 0.100926
4.57 0.0840912
4.58 0.0651143
4.59 0.0445114
4.6 0.0228505
4.61 0.000722155
4.62 -0.0211376
4.63 -0.0419624
4.64 -0.0610175
4.65 -0.0777257
4.66 -0.0911048
4.67 -0.101053
4.68 -0.106727
4.69 -0.108069
4.7 -0.105
4.71 -0.0971134
4.72 -0.0851107
4.73 -0.068767
4.74 -0.0488324
4.75 -0.0257653
4.76 -1.31763e-06
4.77 0.0275675
4.78 0.0564713
4.79 0.0859066
4.8 0.1153
4.81 0.144011
4.82 0.171659
4.83 0.197657
4.84 0.221887
4.85 0.244114
4.86 0.264197
4.87 0.282376
4.88 0.298511
4.89 0.313068
4.9 0.326213
4.91 0.338258
4.92 0.349583
4.93 0.360418
4.94 0.371095
4.95 0.381803
4.96 0.392688
4.97 0.40378
4.98 0.415058
4.99 0.426351
5 0.437422
5.01 0.447921
5.02 0.457524
5.03 0.465579
5.04 0.47182
5.05 0.475562
5.06 0.476364
5.07 0.473942
5.08 0.467461
5.09 0.45715
5.1 0.442373
5.11 0.42325
5.12 0.399916
5.13 0.372109
5.14 0.340634
5.15 0.305449
5.16 0.267309
5.17 0.22676
5.18 0.184317
5.19 0.140825
5.2 0.0968758
5.21 0.0532101
5.22 0.0104241
5.23 -0.0307699
5.24 -0.0700745
5.25 -0.106778
5.26 -0.140816
5.27 -0.171926
5.28 -0.199873
5.29 -0.22499
5.3 -0.246987
5.31 -0.266427
5.32 -0.28345
5.33 -0.29835
5.34 -0.311644
5.35 -0.323495
5.36 -0.334445
5.37 -0.344747
5.38 -0.354697
5.39 -0.364519
5.4 -0.374358
5.41 -0.384274
5.42 -0.394261
5.43 -0.404217
5.44 -0.414001
5.45 -0.423334
5.46 -0.432017
5.47 -0.439697
5.48 -0.446068
5.49 -0.450929
5.5 -0.453767
5.51 -0.454629
5.52 -0.453135
5.53 -0.449269
5.54 -0.443093
5.55 -0.434412
5.56 -0.42368
5.57 -0.410892
5.58 -0.396479
5.59 -0.380801
5.6 -0.364203
5.61 -0.347213
5.62 -0.330265
5.63 -0.313835
5.64 -0.298325
5.65 -0.284255
5.66 -0.271788
5.67 -0.261438
5.68 -0.253231
5.69 -0.247318
5.7 -0.243875
5.71 -0.242602
5.72 -0.243673
5.73 -0.246642
5.74 -0.251333
5.75 -0.257471
5.76 -0.264603
5.77 -0.272476
5.78 -0.280627
5.79 -0.28873
5.8 -0.296413
5.81 -0.303438
5.82 -0.309402
5.83 -0.314233
5.84 -0.317694
5.85 -0.319657
5.86 -0.320189
5.87 -0.319033
5.88 -0.316455
5.89 -0.312378
5.9 -0.306897
5.91 -0.300173
5.92 -0.292123
5.93 -0.283002
5.94 -0.272763
5.95 -0.261485
5.96 -0.249233
5.97 -0.235883
5.98 -0.221557
5.99 -0.20611
6 -0.189544
6.01 -0.171849
6.02 -0.152863
6.03 -0.13273
6.04 -0.111327
6.05 -0.0887907
6.06 -0.0652263
6.07 -0.0407205
6.08 -0.0155833
6.09 0.00997851
6.1 0.0355884
6.11 0.0608964
6.12 0.0854101
6.13 0.108801
6.14 0.130417
6.15 0.149953
6.16 0.166952
6.17 0.180848
6.18 0.191651
6.19 0.198629
6.2 0.202043
6.21 0.201695
6.22 0.197542
6.23 0.190117
6.24 0.179268
6.25 0.165871
6.26 0.150299
6.27 0.133239
6.28 0.115474
6.29 0.0977986
6.3 0.081023
6.31 0.0660214
6.32 0.0536701
6.33 0.0444496
6.34 0.039629
6.35 0.0391385
6.36 0.0438088
6.37 0.0538421
6.38 0.0690434
6.39 0.0900531
6.4 0.115857
6.41 0.146537
6.42 0.181297
6.43 0.219316
6.44 0.259996
6.45 0.302071
6.46 0.344635
6.47 0.386509
6.48 0.426707
6.49 0.463843
6.5 0.497326
6.51 0.525739
6.52 0.54858
6.53 0.565254
6.54 0.574695
6.55 0.577409
6.56 0.572349
6.57 0.560212
6.58 0.541104
6.59 0.515033
6.6 0.483239
6.61 0.44566
6.62 0.403696
6.63 0.358036
6.64 0.309571
6.65 0.25946
6.66 0.208533
6.67 0.157841
6.68 0.108233
6.69 0.0606301
6.7 0.0154925
6.71 -0.0261044
6.72 -0.0641462
6.73 -0.0980515
6.74 -0.127544
6.75 -0.1529
6.76 -0.173441
6.77 -0.189991
6.78 -0.202406
6.79 -0.211037
6.8 -0.216444
6.81 -0.21859
6.82 -0.218323
6.83 -0.215808
6.84 -0.211533
6.85 -0.205917
6.86 -0.199174
6.87 -0.191734
6.88 -0.183767
6.89 -0.175504
6.9 -0.167089
6.91 -0.158619
6.92 -0.150162
6.93 -0.14175
6.94 -0.133392
6.95 -0.125079
6.96 -0.116806
6.97 -0.108563
6.98 -0.100357
6.99 -0.0922097
7 -0.0841614
7.01 -0.0762944
7.02 -0.0686726
7.03 -0.061449
7.04 -0.0547206
7.05 -0.0486289
7.06 -0.0433699
7.07 -0.0389873
7.08 -0.0357492
7.09 -0.0336433
7.1 -0.032788
7.11 -0.0332746
7.12 -0.0349756
7.13 -0.0380262
7.14 -0.0421646
7.15 -0.0473164
7.16 -0.05329
7.17 -0.0598054
7.18 -0.066644
7.19 -0.0734654
7.2 -0.0799662
7.21 -0.0857956
7.22 -0.0907226
7.23 -0.0942548
7.24 -0.0963233
7.25 -0.0965643
7.26 -0.0948048
7.27 -0.0910444
7.28 -0.0849183
7.29 -0.0767418
7.3 -0.0663644
7.31 -0.0539903
7.32 -0.0398689
7.33 -0.0240606
7.34 -0.00705773
7.35 0.0109425
7.36 0.0295161
7.37 0.048312
7.38 0.0669259
7.39 0.08503
7.4 0.102196
7.41 0.118143
7.42 0.132613
7.43 0.145201
7.44 0.155937
7.45 0.164423
7.46 0.170745
7.47 0.174842
7.48 0.176586
7.49 0.176283
7.5 0.173765
7.51 0.169397
7.52 0.163292
7.53 0.155599
7.54 0.14668
7.55 0.136617
7.56 0.125787
7.57 0.114385
7.58 0.102663
7.59 0.0908587
7.6 0.0792103
7.61 0.0679046
7.62 0.0571446
7.63 0.0471243
7.64 0.0379169
7.65 0.0298107
7.66 0.0227592
7.67 0.0169393
7.68 0.0124195
7.69 0.00915241
7.7 0.00735862
7.71 0.00683262
7.72 0.00767323
7.73 0.00979544
7.74 0.0130631
7.75 0.0175084
7.76 0.0228448
7.77 0.0290035
7.78 0.0357487
7.79 0.0428636
7.8 0.050117
7.81 0.0572436
7.82 0.0639482
7.83 0.0699558
7.84 0.0750199
7.85 0.078737
7.86 0.0810207
7.87 0.0814436
7.88 0.0799261
7.89 0.0763185
7.9 0.0703331
7.91 0.062181
7.92 0.0515747
7.93 0.0387992
7.94 0.0239385
7.95 0.00709099
7.96 -0.0113021
7.97 -0.031124
7.98 -0.0518619
7.99 -0.0731811
8 -0.0946432
8.01 -0.115848
8.02 -0.136286
8.03 -0.155641
8.04 -0.173502
8.05 -0.189478
8.06 -0.203499
8.07 -0.215021
8.08 -0.224257
8.09 -0.231
8.1 -0.235284
8.11 -0.237408
8.12 -0.237243
8.13 -0.23538
8.14 -0.231975
8.15 -0.22744
8.16 -0.222194
8.17 -0.216596
8.18 -0.211075
8.19 -0.206002
8.2 -0.201715
8.21 -0.19842
8.22 -0.196468
8.23 -0.195796
8.24 -0.196573
8.25 -0.198664
8.26 -0.201893
8.27 -0.206107
8.28 -0.210878
8.29 -0.215872
8.3 -0.220609
8.31 -0.224655
8.32 -0.22739
8.33 -0.228504
8.34 -0.227297
8.35 -0.223507
8.36 -0.216781
8.37 -0.206598
8.38 -0.193155
8.39 -0.175905
8.4 -0.155226
8.41 -0.131153
8.42 -0.10378
8.43 -0.0737537
8.44 -0.04116
8.45 -0.00680512
8.46 0.0288433
8.47 0.065139
8.48 0.10144
8.49 0.137017
8.5 0.171328
8.51 0.203733
8.52 0.233619
8.53 0.260791
8.54 0.284374
8.55 0.3046
8.56 0.321034
8.57 0.33362
8.58 0.342672
8.59 0.347801
8.6 0.349793
8.61 0.348659
8.62 0.344869
8.63 0.338956
8.64 0.331158
8.65 0.322186
8.66 0.31239
8.67 0.30228
8.68 0.292244
8.69 0.282708
8.7 0.2739
8.71 0.266147
8.72 0.259566
8.73 0.254215
8.74 0.250235
8.75 0.247408
8.76 0.245752
8.77 0.245001
8.78 0.244948
8.79 0.245357
8.8 0.245911
8.81 0.246314
8.82 0.246271
8.83 0.245509
8.84 0.243683
8.85 0.240683
8.86 0.236118
8.87 0.229976
8.88 0.222091
8.89 0.212301
8.9 0.200767
8.91 0.187242
8.92 0.172017
8.93 0.1551
8.94 0.136602
8.95 0.116819
8.96 0.0957749
8.97 0.0738615
8.98 0.0512551
8.99 0.0282398
9 0.00509461
9.01 -0.0178722
9.02 -0.0403995
9.03 -0.0621671
9.04 -0.0828695
9.05 -0.102326
9.06 -0.12004
9.07 -0.136006
9.08 -0.14982
9.09 -0.161315
9.1 -0.170443
9.11 -0.176734
9.12 -0.180462
9.13 -0.181292
9.14 -0.179338
9.15 -0.174728
9.16 -0.16728
9.17 -0.157495
9.18 -0.145314
9.19 -0.131156
9.2 -0.115336
9.21 -0.0981053
9.22 -0.0799999
9.23 -0.0613523
9.24 -0.0426619
9.25 -0.0243391
9.26 -0.00690439
9.27 0.00935072
9.28 0.0238495
9.29 0.0363969
9.3 0.0466819
9.31 0.0543308
9.32 0.0594727
9.33 0.0616587
9.34 0.0612062
9.35 0.0580856
9.36 0.052372
9.37 0.0445127
9.38 0.0344919
9.39 0.0229067
9.4 0.0100129
9.41 -0.0037894
9.42 -0.0180721
9.43 -0.0324792
9.44 -0.0466408
9.45 -0.0602361
9.46 -0.0729763
9.47 -0.0847446
9.48 -0.0952264
9.49 -0.104542
9.5 -0.11259
9.51 -0.119469
9.52 -0.125369
9.53 -0.130366
9.54 -0.134801
9.55 -0.138867
9.56 -0.142857
9.57 -0.147004
9.58 -0.151593
9.59 -0.156756
9.6 -0.162704
9.61 -0.169488
9.62 -0.177098
9.63 -0.185554
9.64 -0.194623
9.65 -0.204163
9.66 -0.213856
9.67 -0.223396
9.68 -0.232351
9.69 -0.240412
9.7 -0.247029
9.71 -0.251904
9.72 -0.254673
9.73 -0.254835
9.74 -0.252426
9.75 -0.246889
9.76 -0.238433
9.77 -0.226979
9.78 -0.212505
9.79 -0.195502
9.8 -0.175933
9.81 -0.154488
9.82 -0.131528
9.83 -0.107597
9.84 -0.0833018
9.85 -0.0592592
9.86 -0.0360365
9.87 -0.0142371
9.88 0.00553778
9.89 0.0230378
9.9 0.0374268
9.91 0.0488505
9.92 0.056864
9.93 0.0613856
9.94 0.0626684
9.95 0.0603546
9.96 0.0551622
9.97 0.0471139
9.98 0.0366829
9.99 0.0243838
10 0.0105096
10.01 -0.00425548
10.02 -0.0195138
10.03 -0.0347432
10.04 -0.0495503
10.05 -0.0634476
10.06 -0.0762419
10.07 -0.0875466
10.08 -0.0972562
10.09 -0.105304
10.1 -0.111495
10.11 -0.116082
10.12 -0.118959
10.13 -0.12039
10.14 -0.120531
10.15 -0.119491
10.16 -0.11758
10.17 -0.114875
10.18 -0.111613
10.19 -0.107904
10.2 -0.10383
10.21 -0.0994753
10.22 -0.0948116
10.23 -0.0898388
10.24 -0.0844825
10.25 -0.0786219
10.26 -0.0722023
10.27 -0.0650028
10.28 -0.0569976
10.29 -0.0480473
10.3 -0.0380519
10.31 -0.0270731
10.32 -0.0149662
10.33 -0.00194857
10.34 0.0119305
10.35 0.0264822
10.36 0.0414522
10.37 0.056596
10.38 0.0715859
10.39 0.086089
10.4 0.0997477
10.41 0.112321
10.42 0.1233
10.43 0.132647
10.44 0.13999
10.45 0.145234
10.46 0.148412
10.47 0.149284
10.48 0.148246
10.49 0.145281
10.5 0.14076
10.51 0.135032
10.52 0.12842
10.53 0.121446
10.54 0.114546
10.55 0.108203
10.56 0.102823
10.57 0.0989558
10.58 0.0967577
10.59 0.0967403
10.6 0.0989324
10.61 0.103436
10.62 0.110396
10.63 0.119434
10.64 0.130594
10.65 0.14334
10.66 0.157326
10.67 0.172075
10.68 0.18702
10.69 0.201563
10.7 0.215158
10.71 0.227232
10.72 0.237149
10.73 0.244686
10.74 0.249026
10.75 0.250268
10.76 0.24803
10.77 0.24217
10.78 0.233022
10.79 0.220207
10.8 0.204487
10.81 0.18596
10.82 0.165099
10.83 0.142512
10.84 0.118546
10.85 0.093945
10.86 0.0691985
10.87 0.0448938
10.88 0.0214585
10.89 -0.000473998
10.9 -0.0207401
10.91 -0.0388695
10.92 -0.054714
10.93 -0.0682508
10.94 -0.0791674
10.95 -0.0878419
10.96 -0.0941413
10.97 -0.0983799
10.98 -0.100806
10.99 -0.101532
11 -0.101015
11.01 -0.099383
11.02 -0.0969759
11.03 -0.0940015
11.04 -0.0906211
11.05 -0.0870076
11.06 -0.0832206
11.07 -0.0793091
11.08 -0.0752562
11.09 -0.0709877
11.1 -0.0664402
11.11 -0.061447
11.12 -0.0559213
11.13 -0.0497278
11.14 -0.0427149
11.15 -0.0348882
11.16 -0.0260776
11.17 -0.0164042
11.18 -0.00588278
11.19 0.00537515
11.2 0.0171429
11.21 0.0292367
11.22 0.0413295
11.23 0.0531128
11.24 0.0642024
11.25 0.0743353
11.26 0.0829362
11.27 0.0898941
11.28 0.0947719
11.29 0.0973172
11.3 0.0975164
11.31 0.0948918
11.32 0.0898088
11.33 0.0820855
11.34 0.0719513
11.35 0.0597336
11.36 0.04552
11.37 0.0299405
11.38 0.0132865
11.39 -0.00389061
11.4 -0.0211246
11.41 -0.0378535
11.42 -0.0536806
11.43 -0.0680379
11.44 -0.0805922
11.45 -0.0910638
11.46 -0.0989721
11.47 -0.104457
11.48 -0.107126
11.49 -0.107203
11.5 -0.104771
11.51 -0.0998536
11.52 -0.0929622
11.53 -0.08417
11.54 -0.0740278
11.55 -0.0628768
11.56 -0.0511237
11.57 -0.0392071
11.58 -0.027536
11.59 -0.0164543
11.6 -0.0062854
11.61 0.00264373
11.62 0.0102656
11.63 0.0162223
11.64 0.0206445
11.65 0.0234353
11.66 0.0246224
11.67 0.0244388
11.68 0.0228303
11.69 0.0201747
11.7 0.0165884
11.71 0.0123073
11.72 0.00757749
11.73 0.00256703
11.74 -0.00249783
11.75 -0.00746253
11.76 -0.0121837
11.77 -0.0165847
11.78 -0.0205422
11.79 -0.0240818
11.8 -0.0271537
11.81 -0.0297909
11.82 -0.032042
11.83 -0.033911
11.84 -0.0354932
11.85 -0.0368025
11.86 -0.0378901
11.87 -0.0387811
11.88 -0.0394595
11.89 -0.0399353
11.9 -0.0401457
11.91 -0.0400495
11.92 -0.0395831
11.93 -0.0386228
11.94 -0.0371429
11.95 -0.0349843
11.96 -0.0321217
11.97 -0.0284901
11.98 -0.0239947
11.99 -0.0187168
12 -0.012569
12.01 -0.00569329
12.02 0.00184555
12.03 0.0099374
12.04 0.0183826
12.05 0.0270277
12.06 0.0356393
12.07 0.0440076
12.08 0.0518773
12.09 0.0590967
12.1 0.065332
12.11 0.070528
12.12 0.0744751
12.13 0.0770398
12.14 0.0782804
12.15 0.0779551
12.16 0.0763203
12.17 0.0733416
12.18 0.0691616
12.19 0.0640074
12.2 0.0579528
12.21 0.0513344
12.22 0.044321
12.23 0.0371676
12.24 0.0300783
12.25 0.0232906
12.26 0.0169288
12.27 0.0111722
12.28 0.00609468
12.29 0.00171393
12.3 -0.00189204
12.31 -0.00486644
12.32 -0.00722885
12.33 -0.00914744
12.34 -0.010772
12.35 -0.0122726
12.36 -0.0138371
12.37 -0.0156637
12.38 -0.0179094
12.39 -0.0207075
12.4 -0.0242259
12.41 -0.0284501
12.42 -0.0335006
12.43 -0.039277
12.44 -0.0457205
12.45 -0.0527278
12.46 -0.0600828
12.47 -0.0676063
12.48 -0.0750352
12.49 -0.0821233
12.5 -0.088562
12.51 -0.0941774
12.52 -0.0985727
12.53 -0.101678
12.54 -0.103258
12.55 -0.103146
12.56 -0.101431
12.57 -0.0978486
12.58 -0.0927098
12.59 -0.0860175
12.6 -0.077964
12.61 -0.0688648
12.62 -0.0588699
12.63 -0.0484172
12.64 -0.0377895
12.65 -0.0273593
12.66 -0.0174146
12.67 -0.00838998
12.68 -0.000435005
12.69 0.00610603
12.7 0.0110758
12.71 0.0144332
12.72 0.0159091
12.73 0.0157588
12.74 0.0138836
12.75 0.0105154
12.76 0.00587912
12.77 0.000126648
12.78 -0.00632715
12.79 -0.013234
12.8 -0.0202108
12.81 -0.026945
12.82 -0.0330415
12.83 -0.0382846
12.84 -0.0422731
12.85 -0.0448617
