# xPDFsuite Configuration #
[PDF]
wavelength = 0.1
dataformat = QA
inputfile = B3_Bronze-3nm_ss_036.chi
backgroundfile = B3_Li-bkg_DD155_two_ss_att.chi
mode = xray
bgscale = 0.985
composition = Ti O2
outputtype = gr
qmaxinst = 23.5
qmin = 0.1
qmax = 23.0
rmax = 40.0
rmin = 0.0
rstep = 0.01
rpoly = 0.9

[Misc]
inputdir = E:/Beamtime/PETRA-III_September-2019/BeamData/processed/Run1/B3/integration_20210218/chi/chi_w_sigmas/chi_scaled
savedir = E:/Beamtime/PETRA-III_September-2019/BeamData/processed/Run1/B3/integration_20210218
backgroundfilefull = E:/Beamtime/PETRA-III_September-2019/BeamData/processed/Run1/B3/integration_20210218/chi/chi_w_sigmas/chi_scaled/B3_Li-bkg_DD155_two_ss_att.chi

#### start data
#S 1
#L r($\AA$)  G($\AA^{-2}$)
0 0
0.01 0.00200611
0.02 0.00390507
0.03 0.00558849
0.04 0.00695962
0.05 0.00797235
0.06 0.00851085
0.07 0.00861148
0.08 0.00822637
0.09 0.00739002
0.1 0.00616467
0.11 0.00457618
0.12 0.0027546
0.13 0.000774683
0.14 -0.00124221
0.15 -0.00319476
0.16 -0.00495347
0.17 -0.00644865
0.18 -0.00756224
0.19 -0.00824678
0.2 -0.00846771
0.21 -0.00815949
0.22 -0.00738899
0.23 -0.00612958
0.24 -0.00447472
0.25 -0.00249315
0.26 -0.000266905
0.27 0.00207654
0.28 0.00442638
0.29 0.00665494
0.3 0.00864484
0.31 0.0102501
0.32 0.0114086
0.33 0.0119471
0.34 0.0118452
0.35 0.0110138
0.36 0.0093708
0.37 0.00696441
0.38 0.00366201
0.39 -0.000421992
0.4 -0.00531112
0.41 -0.0109759
0.42 -0.0172977
0.43 -0.0242993
0.44 -0.0317968
0.45 -0.039724
0.46 -0.0479421
0.47 -0.0562986
0.48 -0.0646215
0.49 -0.0727275
0.5 -0.080388
0.51 -0.0873535
0.52 -0.0934333
0.53 -0.0981811
0.54 -0.10149
0.55 -0.102908
0.56 -0.102163
0.57 -0.0990706
0.58 -0.0930153
0.59 -0.0841286
0.6 -0.0718728
0.61 -0.0562408
0.62 -0.0372321
0.63 -0.0144886
0.64 0.0114542
0.65 0.0407859
0.66 0.0729677
0.67 0.107597
0.68 0.144283
0.69 0.182195
0.7 0.220716
0.71 0.258949
0.72 0.296079
0.73 0.331013
0.74 0.363135
0.75 0.39108
0.76 0.414388
0.77 0.432218
0.78 0.443602
0.79 0.448734
0.8 0.446333
0.81 0.437122
0.82 0.42086
0.83 0.397666
0.84 0.36863
0.85 0.33362
0.86 0.29429
0.87 0.251345
0.88 0.20601
0.89 0.159579
0.9 0.113323
0.91 0.0684499
0.92 0.0262082
0.93 -0.012269
0.94 -0.0464455
0.95 -0.0748687
0.96 -0.0979092
0.97 -0.11487
0.98 -0.125989
0.99 -0.131906
1 -0.132658
1.01 -0.129794
1.02 -0.124038
1.03 -0.116858
1.04 -0.109556
1.05 -0.103757
1.06 -0.100627
1.07 -0.101847
1.08 -0.108434
1.09 -0.121184
1.1 -0.141489
1.11 -0.168816
1.12 -0.20408
1.13 -0.246355
1.14 -0.294974
1.15 -0.349194
1.16 -0.40705
1.17 -0.467167
1.18 -0.527283
1.19 -0.585381
1.2 -0.638804
1.21 -0.685944
1.22 -0.723495
1.23 -0.75037
1.24 -0.764524
1.25 -0.763858
1.26 -0.748872
1.27 -0.716761
1.28 -0.669515
1.29 -0.606772
1.3 -0.529309
1.31 -0.439799
1.32 -0.338574
1.33 -0.22963
1.34 -0.115058
1.35 0.0018569
1.36 0.118102
1.37 0.229826
1.38 0.334552
1.39 0.428737
1.4 0.509561
1.41 0.575756
1.42 0.623016
1.43 0.652614
1.44 0.661996
1.45 0.651549
1.46 0.622545
1.47 0.573795
1.48 0.509369
1.49 0.429626
1.5 0.337899
1.51 0.237073
1.52 0.129632
1.53 0.0193886
1.54 -0.0907117
1.55 -0.197438
1.56 -0.298187
1.57 -0.389503
1.58 -0.470398
1.59 -0.537648
1.6 -0.590962
1.61 -0.629508
1.62 -0.651944
1.63 -0.660218
1.64 -0.653114
1.65 -0.633216
1.66 -0.601567
1.67 -0.559514
1.68 -0.509877
1.69 -0.453798
1.7 -0.394093
1.71 -0.332499
1.72 -0.271029
1.73 -0.211178
1.74 -0.15478
1.75 -0.102509
1.76 -0.0553529
1.77 -0.0138649
1.78 0.0223463
1.79 0.0526428
1.8 0.0783338
1.81 0.099731
1.82 0.117804
1.83 0.133673
1.84 0.148186
1.85 0.162524
1.86 0.177573
1.87 0.194167
1.88 0.212752
1.89 0.234027
1.9 0.257737
1.91 0.283984
1.92 0.31223
1.93 0.341796
1.94 0.371826
1.95 0.401225
1.96 0.428679
1.97 0.452903
1.98 0.472745
1.99 0.486279
2 0.493106
2.01 0.491269
2.02 0.480423
2.03 0.45999
2.04 0.428752
2.05 0.387826
2.06 0.336131
2.07 0.275089
2.08 0.205296
2.09 0.127391
2.1 0.0434233
2.11 -0.0458319
2.12 -0.138136
2.13 -0.23192
2.14 -0.325193
2.15 -0.416311
2.16 -0.502919
2.17 -0.583764
2.18 -0.657013
2.19 -0.72085
2.2 -0.774976
2.21 -0.816627
2.22 -0.846605
2.23 -0.863539
2.24 -0.866957
2.25 -0.857894
2.26 -0.834423
2.27 -0.799034
2.28 -0.751265
2.29 -0.692121
2.3 -0.623254
2.31 -0.544567
2.32 -0.458717
2.33 -0.366428
2.34 -0.269535
2.35 -0.16973
2.36 -0.068565
2.37 0.0321255
2.38 0.130556
2.39 0.225009
2.4 0.314111
2.41 0.395471
2.42 0.46865
2.43 0.531306
2.44 0.582816
2.45 0.622436
2.46 0.648207
2.47 0.66126
2.48 0.659712
2.49 0.64468
2.5 0.616413
2.51 0.574638
2.52 0.521684
2.53 0.457318
2.54 0.384088
2.55 0.30339
2.56 0.216946
2.57 0.127233
2.58 0.0361534
2.59 -0.0538807
2.6 -0.140752
2.61 -0.22198
2.62 -0.29629
2.63 -0.3606
2.64 -0.414568
2.65 -0.456413
2.66 -0.484924
2.67 -0.50079
2.68 -0.501791
2.69 -0.490229
2.7 -0.46577
2.71 -0.429517
2.72 -0.383571
2.73 -0.328268
2.74 -0.266791
2.75 -0.200552
2.76 -0.131929
2.77 -0.0629815
2.78 0.00394214
2.79 0.0672253
2.8 0.124761
2.81 0.175145
2.82 0.217618
2.83 0.250266
2.84 0.273921
2.85 0.287499
2.86 0.291807
2.87 0.28766
2.88 0.275272
2.89 0.2568
2.9 0.232991
2.91 0.20584
2.92 0.176874
2.93 0.147787
2.94 0.120052
2.95 0.0953481
2.96 0.0746935
2.97 0.0590245
2.98 0.0494269
2.99 0.0455851
3 0.0483419
3.01 0.056759
3.02 0.0704438
3.03 0.0886815
3.04 0.110022
3.05 0.133521
3.06 0.157523
3.07 0.180686
3.08 0.201406
3.09 0.218687
3.1 0.23061
3.11 0.23683
3.12 0.23622
3.13 0.228125
3.14 0.212956
3.15 0.189592
3.16 0.159544
3.17 0.122834
3.18 0.0804233
3.19 0.0336329
3.2 -0.0168382
3.21 -0.0692209
3.22 -0.12241
3.23 -0.175
3.24 -0.225937
3.25 -0.273766
3.26 -0.318028
3.27 -0.357653
3.28 -0.392328
3.29 -0.422023
3.3 -0.446187
3.31 -0.465747
3.32 -0.480628
3.33 -0.491731
3.34 -0.499795
3.35 -0.505443
3.36 -0.509746
3.37 -0.513373
3.38 -0.517128
3.39 -0.521557
3.4 -0.527195
3.41 -0.534124
3.42 -0.542531
3.43 -0.552063
3.44 -0.56233
3.45 -0.572648
3.46 -0.582246
3.47 -0.589943
3.48 -0.594817
3.49 -0.595689
3.5 -0.591121
3.51 -0.580644
3.52 -0.562259
3.53 -0.536074
3.54 -0.501081
3.55 -0.456683
3.56 -0.403629
3.57 -0.340746
3.58 -0.269852
3.59 -0.191123
3.6 -0.105693
3.61 -0.0152602
3.62 0.0792385
3.63 0.175549
3.64 0.272093
3.65 0.366864
3.66 0.458325
3.67 0.543949
3.68 0.622925
3.69 0.693111
3.7 0.753394
3.71 0.803295
3.72 0.840634
3.73 0.866588
3.74 0.879717
3.75 0.880707
3.76 0.870224
3.77 0.847725
3.78 0.815456
3.79 0.773266
3.8 0.722944
3.81 0.665684
3.82 0.602299
3.83 0.534688
3.84 0.463623
3.85 0.390612
3.86 0.316671
3.87 0.242875
3.88 0.170047
3.89 0.0991738
3.9 0.0307706
3.91 -0.0345677
3.92 -0.0961524
3.93 -0.154
3.94 -0.207197
3.95 -0.255963
3.96 -0.299871
3.97 -0.338505
3.98 -0.372154
3.99 -0.399788
4 -0.42193
4.01 -0.438021
4.02 -0.447728
4.03 -0.451413
4.04 -0.447876
4.05 -0.437996
4.06 -0.421194
4.07 -0.397499
4.08 -0.36751
4.09 -0.330497
4.1 -0.287797
4.11 -0.239346
4.12 -0.185921
4.13 -0.128469
4.14 -0.0674349
4.15 -0.00424889
4.16 0.0602497
4.17 0.12481
4.18 0.188383
4.19 0.24953
4.2 0.307485
4.21 0.360804
4.22 0.408717
4.23 0.450579
4.24 0.485024
4.25 0.512467
4.26 0.53172
4.27 0.54322
4.28 0.547066
4.29 0.542946
4.3 0.53217
4.31 0.514497
4.32 0.491268
4.33 0.463178
4.34 0.430942
4.35 0.395861
4.36 0.358561
4.37 0.320202
4.38 0.281548
4.39 0.243442
4.4 0.206434
4.41 0.171288
4.42 0.1382
4.43 0.107528
4.44 0.0794885
4.45 0.0538566
4.46 0.0309102
4.47 0.0101093
4.48 -0.0086433
4.49 -0.0256637
4.5 -0.0413835
4.51 -0.0559568
4.52 -0.0698445
4.53 -0.0832283
4.54 -0.0963195
4.55 -0.109242
4.56 -0.122012
4.57 -0.134601
4.58 -0.146862
4.59 -0.158582
4.6 -0.169546
4.61 -0.179295
4.62 -0.187653
4.63 -0.194111
4.64 -0.198374
4.65 -0.200222
4.66 -0.199071
4.67 -0.19509
4.68 -0.187802
4.69 -0.177338
4.7 -0.163771
4.71 -0.146946
4.72 -0.127434
4.73 -0.105184
4.74 -0.0807592
4.75 -0.0545154
4.76 -0.0268034
4.77 0.00179962
4.78 0.0309321
4.79 0.060098
4.8 0.0889229
4.81 0.116987
4.82 0.144091
4.83 0.169829
4.84 0.194168
4.85 0.216952
4.86 0.238073
4.87 0.2577
4.88 0.275669
4.89 0.29228
4.9 0.307569
4.91 0.321658
4.92 0.334766
4.93 0.346865
4.94 0.358181
4.95 0.368703
4.96 0.378445
4.97 0.387435
4.98 0.395465
4.99 0.402549
5 0.408446
5.01 0.41297
5.02 0.416015
5.03 0.417122
5.04 0.416348
5.05 0.413306
5.06 0.407888
5.07 0.400079
5.08 0.389493
5.09 0.376462
5.1 0.360746
5.11 0.342575
5.12 0.322145
5.13 0.299455
5.14 0.275015
5.15 0.248911
5.16 0.221581
5.17 0.193334
5.18 0.164464
5.19 0.135338
5.2 0.106239
5.21 0.0774375
5.22 0.0491443
5.23 0.0215925
5.24 -0.00517814
5.25 -0.0309722
5.26 -0.0558518
5.27 -0.0798007
5.28 -0.102826
5.29 -0.125086
5.3 -0.146565
5.31 -0.167448
5.32 -0.187793
5.33 -0.207668
5.34 -0.227161
5.35 -0.246237
5.36 -0.26493
5.37 -0.28316
5.38 -0.300815
5.39 -0.317824
5.4 -0.333884
5.41 -0.348936
5.42 -0.362691
5.43 -0.374917
5.44 -0.385528
5.45 -0.394051
5.46 -0.400609
5.47 -0.404886
5.48 -0.40684
5.49 -0.406564
5.5 -0.403792
5.51 -0.398942
5.52 -0.39194
5.53 -0.383089
5.54 -0.372684
5.55 -0.360883
5.56 -0.348175
5.57 -0.334811
5.58 -0.321201
5.59 -0.307669
5.6 -0.294599
5.61 -0.282224
5.62 -0.270907
5.63 -0.260803
5.64 -0.252068
5.65 -0.244938
5.66 -0.239291
5.67 -0.235336
5.68 -0.232886
5.69 -0.231895
5.7 -0.232323
5.71 -0.233898
5.72 -0.23662
5.73 -0.240212
5.74 -0.244563
5.75 -0.249548
5.76 -0.254991
5.77 -0.260848
5.78 -0.266985
5.79 -0.273363
5.8 -0.27994
5.81 -0.286672
5.82 -0.293562
5.83 -0.300567
5.84 -0.307664
5.85 -0.314803
5.86 -0.321914
5.87 -0.328869
5.88 -0.335549
5.89 -0.341748
5.9 -0.347226
5.91 -0.351793
5.92 -0.354975
5.93 -0.35665
5.94 -0.356333
5.95 -0.353724
5.96 -0.348641
5.97 -0.340444
5.98 -0.329308
5.99 -0.314737
6 -0.296786
6.01 -0.275548
6.02 -0.250784
6.03 -0.223122
6.04 -0.192541
6.05 -0.159665
6.06 -0.124993
6.07 -0.0890502
6.08 -0.052616
6.09 -0.016391
6.1 0.0188598
6.11 0.0524363
6.12 0.083411
6.13 0.111447
6.14 0.135507
6.15 0.15547
6.16 0.170903
6.17 0.181347
6.18 0.187257
6.19 0.188095
6.2 0.184703
6.21 0.177316
6.22 0.16646
6.23 0.15311
6.24 0.137813
6.25 0.121734
6.26 0.105744
6.27 0.0909237
6.28 0.0780316
6.29 0.0684337
6.3 0.062487
6.31 0.0611655
6.32 0.0650674
6.33 0.0741648
6.34 0.0895146
6.35 0.110242
6.36 0.136672
6.37 0.168282
6.38 0.204277
6.39 0.244419
6.4 0.287297
6.41 0.3322
6.42 0.377898
6.43 0.423335
6.44 0.467167
6.45 0.508517
6.46 0.546006
6.47 0.578791
6.48 0.606176
6.49 0.626797
6.5 0.640929
6.51 0.647359
6.52 0.646393
6.53 0.63803
6.54 0.621844
6.55 0.599013
6.56 0.569161
6.57 0.533511
6.58 0.492648
6.59 0.447153
6.6 0.398312
6.61 0.346628
6.62 0.293317
6.63 0.239155
6.64 0.185049
6.65 0.131708
6.66 0.0800372
6.67 0.0304713
6.68 -0.0163882
6.69 -0.0600064
6.7 -0.100388
6.71 -0.136764
6.72 -0.16953
6.73 -0.198395
6.74 -0.223358
6.75 -0.244823
6.76 -0.262358
6.77 -0.27671
6.78 -0.287792
6.79 -0.295865
6.8 -0.301324
6.81 -0.304028
6.82 -0.304559
6.83 -0.302894
6.84 -0.299283
6.85 -0.293969
6.86 -0.286906
6.87 -0.278458
6.88 -0.268612
6.89 -0.25757
6.9 -0.245489
6.91 -0.232416
6.92 -0.218616
6.93 -0.204168
6.94 -0.189294
6.95 -0.174168
6.96 -0.158992
6.97 -0.143964
6.98 -0.129323
6.99 -0.115257
7 -0.101957
7.01 -0.089691
7.02 -0.0785047
7.03 -0.0687014
7.04 -0.0602736
7.05 -0.0533236
7.06 -0.0479746
7.07 -0.0440585
7.08 -0.0417298
7.09 -0.0407244
7.1 -0.0409673
7.11 -0.0423104
7.12 -0.0444605
7.13 -0.0472764
7.14 -0.0504148
7.15 -0.0536343
7.16 -0.056628
7.17 -0.0591669
7.18 -0.0608692
7.19 -0.0615996
7.2 -0.0610655
7.21 -0.0590524
7.22 -0.0555298
7.23 -0.0501161
7.24 -0.0430059
7.25 -0.0340105
7.26 -0.0231734
7.27 -0.0106532
7.28 0.00367519
7.29 0.019432
7.3 0.0365902
7.31 0.0548833
7.32 0.0740533
7.33 0.0939143
7.34 0.114115
7.35 0.134402
7.36 0.154458
7.37 0.174019
7.38 0.192697
7.39 0.210325
7.4 0.226486
7.41 0.240997
7.42 0.253644
7.43 0.264017
7.44 0.272191
7.45 0.277699
7.46 0.280618
7.47 0.280827
7.48 0.278084
7.49 0.272688
7.5 0.264295
7.51 0.253272
7.52 0.239656
7.53 0.223512
7.54 0.205284
7.55 0.184951
7.56 0.163054
7.57 0.139841
7.58 0.115684
7.59 0.0910272
7.6 0.0662601
7.61 0.0418236
7.62 0.0181443
7.63 -0.00431526
7.64 -0.0253082
7.65 -0.0441724
7.66 -0.0608961
7.67 -0.0750399
7.68 -0.086394
7.69 -0.0950265
7.7 -0.100444
7.71 -0.103107
7.72 -0.102839
7.73 -0.0998843
7.74 -0.0945996
7.75 -0.0870271
7.76 -0.0778279
7.77 -0.0672506
7.78 -0.0558381
7.79 -0.0440566
7.8 -0.0324267
7.81 -0.0213958
7.82 -0.0115134
7.83 -0.00317455
7.84 0.00329566
7.85 0.00735109
7.86 0.00904017
7.87 0.00788703
7.88 0.00400618
7.89 -0.00259913
7.9 -0.0120324
7.91 -0.0238113
7.92 -0.0379713
7.93 -0.0539567
7.94 -0.0714313
7.95 -0.0899821
7.96 -0.109056
7.97 -0.128181
7.98 -0.146837
7.99 -0.164548
8 -0.180765
8.01 -0.195252
8.02 -0.207345
8.03 -0.217034
8.04 -0.223983
8.05 -0.227987
8.06 -0.229265
8.07 -0.227417
8.08 -0.222985
8.09 -0.215971
8.1 -0.206654
8.11 -0.195505
8.12 -0.18265
8.13 -0.168732
8.14 -0.15406
8.15 -0.1391
8.16 -0.124232
8.17 -0.109907
8.18 -0.0963764
8.19 -0.0840031
8.2 -0.0729916
8.21 -0.0634198
8.22 -0.0555622
8.23 -0.049202
8.24 -0.0444361
8.25 -0.0410469
8.26 -0.0388152
8.27 -0.0375766
8.28 -0.0369266
8.29 -0.0365951
8.3 -0.0361954
8.31 -0.0354038
8.32 -0.0337945
8.33 -0.0311573
8.34 -0.027052
8.35 -0.0213358
8.36 -0.0138179
8.37 -0.00422425
8.38 0.00728235
8.39 0.0209639
8.4 0.0365419
8.41 0.0539342
8.42 0.0730067
8.43 0.0933528
8.44 0.114819
8.45 0.136926
8.46 0.159345
8.47 0.181645
8.48 0.203473
8.49 0.224305
8.5 0.243882
8.51 0.261787
8.52 0.277644
8.53 0.291384
8.54 0.3024
8.55 0.31091
8.56 0.316607
8.57 0.31945
8.58 0.319659
8.59 0.316909
8.6 0.311747
8.61 0.304123
8.62 0.294327
8.63 0.282716
8.64 0.269374
8.65 0.254837
8.66 0.239302
8.67 0.223155
8.68 0.206708
8.69 0.190276
8.7 0.174131
8.71 0.158568
8.72 0.143794
8.73 0.129964
8.74 0.117334
8.75 0.105856
8.76 0.0957313
8.77 0.0868769
8.78 0.0792581
8.79 0.0728892
8.8 0.0675231
8.81 0.063134
8.82 0.0594543
8.83 0.0563063
8.84 0.0534761
8.85 0.0507177
8.86 0.0477863
8.87 0.0444625
8.88 0.040528
8.89 0.035733
8.9 0.0300022
8.91 0.0230357
8.92 0.0148707
8.93 0.00538883
8.94 -0.00545837
8.95 -0.0175148
8.96 -0.0308732
8.97 -0.0452201
8.98 -0.0604395
8.99 -0.0762736
9 -0.0924191
9.01 -0.108555
9.02 -0.124332
9.03 -0.139355
9.04 -0.153213
9.05 -0.165635
9.06 -0.175976
9.07 -0.184179
9.08 -0.189722
9.09 -0.192383
9.1 -0.19211
9.11 -0.188354
9.12 -0.181504
9.13 -0.171234
9.14 -0.157786
9.15 -0.141422
9.16 -0.122113
9.17 -0.10055
9.18 -0.0768905
9.19 -0.0517598
9.2 -0.0256597
9.21 0.000859396
9.22 0.0271964
9.23 0.0527038
9.24 0.0768342
9.25 0.0990688
9.26 0.118692
9.27 0.135567
9.28 0.148908
9.29 0.158727
9.3 0.164752
9.31 0.166652
9.32 0.164836
9.33 0.158857
9.34 0.14934
9.35 0.136394
9.36 0.120272
9.37 0.101638
9.38 0.0806056
9.39 0.057952
9.4 0.0340498
9.41 0.00941306
9.42 -0.0154772
9.43 -0.0401711
9.44 -0.0643188
9.45 -0.0875754
9.46 -0.109672
9.47 -0.130543
9.48 -0.149883
9.49 -0.167891
9.5 -0.184493
9.51 -0.199829
9.52 -0.214115
9.53 -0.22742
9.54 -0.240082
9.55 -0.252245
9.56 -0.264132
9.57 -0.275905
9.58 -0.287684
9.59 -0.299524
9.6 -0.311423
9.61 -0.323287
9.62 -0.334973
9.63 -0.346192
9.64 -0.356712
9.65 -0.366065
9.66 -0.373893
9.67 -0.379796
9.68 -0.383096
9.69 -0.383667
9.7 -0.380706
9.71 -0.374114
9.72 -0.363572
9.73 -0.348585
9.74 -0.329526
9.75 -0.305834
9.76 -0.278096
9.77 -0.246438
9.78 -0.211105
9.79 -0.172922
9.8 -0.132141
9.81 -0.0897716
9.82 -0.0464735
9.83 -0.00313387
9.84 0.0394781
9.85 0.0802899
9.86 0.118711
9.87 0.153859
9.88 0.18495
9.89 0.211814
9.9 0.233218
9.91 0.24963
9.92 0.260461
9.93 0.26572
9.94 0.265906
9.95 0.260552
9.96 0.250824
9.97 0.236806
9.98 0.219249
9.99 0.198944
10 0.176353
10.01 0.152492
10.02 0.127962
10.03 0.103533
10.04 0.0797833
10.05 0.057435
10.06 0.0367623
10.07 0.0183354
10.08 0.0022995
10.09 -0.0112573
10.1 -0.0220634
10.11 -0.0305136
10.12 -0.0364866
10.13 -0.0404146
10.14 -0.0425762
10.15 -0.0432224
10.16 -0.0428593
10.17 -0.0417385
10.18 -0.0402807
10.19 -0.0387636
10.2 -0.0374681
10.21 -0.0365466
10.22 -0.0361853
10.23 -0.0363735
10.24 -0.0371064
10.25 -0.0383014
10.26 -0.0397751
10.27 -0.0413453
10.28 -0.0427621
10.29 -0.0437764
10.3 -0.0440982
10.31 -0.0435741
10.32 -0.0418292
10.33 -0.0388644
10.34 -0.0344882
10.35 -0.0286495
10.36 -0.0214887
10.37 -0.0129029
10.38 -0.00326508
10.39 0.00729543
10.4 0.0184601
10.41 0.0299035
10.42 0.0412684
10.43 0.0522224
10.44 0.0623863
10.45 0.0714478
10.46 0.0792154
10.47 0.0852884
10.48 0.089757
10.49 0.0923886
10.5 0.0932994
10.51 0.0926417
10.52 0.0904726
10.53 0.0872363
10.54 0.0831522
10.55 0.0786768
10.56 0.0741939
10.57 0.0701843
10.58 0.0669836
10.59 0.0651047
10.6 0.0647953
10.61 0.0663166
10.62 0.0700061
10.63 0.0757155
10.64 0.0837138
10.65 0.0936666
10.66 0.105418
10.67 0.118702
10.68 0.132993
10.69 0.147907
10.7 0.162826
10.71 0.177206
10.72 0.190375
10.73 0.20192
10.74 0.210968
10.75 0.217332
10.76 0.220443
10.77 0.219888
10.78 0.215781
10.79 0.207402
10.8 0.195362
10.81 0.179489
10.82 0.160062
10.83 0.137654
10.84 0.112317
10.85 0.0849882
10.86 0.0560572
10.87 0.0262373
10.88 -0.00383905
10.89 -0.0334651
10.9 -0.0620999
10.91 -0.0890644
10.92 -0.113868
10.93 -0.136198
10.94 -0.155358
10.95 -0.171505
10.96 -0.184131
10.97 -0.193349
10.98 -0.199252
10.99 -0.201635
11 -0.201088
11.01 -0.1975
11.02 -0.191376
11.03 -0.183015
11.04 -0.172609
11.05 -0.160699
11.06 -0.147426
11.07 -0.133214
11.08 -0.1183
11.09 -0.102899
11.1 -0.0872417
11.11 -0.0714579
11.12 -0.0556797
11.13 -0.0399853
11.14 -0.0244421
11.15 -0.00907066
11.16 0.00607168
11.17 0.0209841
11.18 0.0356233
11.19 0.0499298
11.2 0.0638736
11.21 0.0772936
11.22 0.090141
11.23 0.102239
11.24 0.113403
11.25 0.123546
11.26 0.132272
11.27 0.139593
11.28 0.145202
11.29 0.148927
11.3 0.150762
11.31 0.150301
11.32 0.147804
11.33 0.14306
11.34 0.136182
11.35 0.127372
11.36 0.116575
11.37 0.104273
11.38 0.0905864
11.39 0.0759221
11.4 0.0606371
11.41 0.0450994
11.42 0.0297137
11.43 0.0148968
11.44 0.00100462
11.45 -0.0116677
11.46 -0.0226774
11.47 -0.0319966
11.48 -0.039229
11.49 -0.0444239
11.5 -0.0475465
11.51 -0.0484951
11.52 -0.0476144
11.53 -0.0448479
11.54 -0.0406119
11.55 -0.0351386
11.56 -0.028716
11.57 -0.0217523
11.58 -0.0145491
11.59 -0.00747955
11.6 -0.000850417
11.61 0.00500163
11.62 0.00992651
11.63 0.0135603
11.64 0.0159197
11.65 0.0168541
11.66 0.0163154
11.67 0.0144658
11.68 0.011196
11.69 0.00684078
11.7 0.0014889
11.71 -0.00463196
11.72 -0.0112602
11.73 -0.018203
11.74 -0.0251835
11.75 -0.0319872
11.76 -0.0383965
11.77 -0.0442765
11.78 -0.0493872
11.79 -0.0537294
11.8 -0.0571554
11.81 -0.0596609
11.82 -0.0612861
11.83 -0.0619613
11.84 -0.0618644
11.85 -0.0609875
11.86 -0.0594633
11.87 -0.0573935
11.88 -0.0548273
11.89 -0.0519053
11.9 -0.0486596
11.91 -0.0451704
11.92 -0.0414739
11.93 -0.0375739
11.94 -0.0334938
11.95 -0.0291935
11.96 -0.0246617
11.97 -0.0198626
11.98 -0.014736
11.99 -0.00928483
12 -0.00343617
12.01 0.00278225
12.02 0.00937294
12.03 0.0163179
12.04 0.0235297
12.05 0.0309553
12.06 0.0384581
12.07 0.0459149
12.08 0.0531532
12.09 0.0600399
12.1 0.0663163
12.11 0.0718772
12.12 0.0765056
12.13 0.0800089
12.14 0.082351
12.15 0.0831976
12.16 0.0826737
12.17 0.0806103
12.18 0.0769992
12.19 0.0719675
12.2 0.0653695
12.21 0.0575215
12.22 0.0484326
12.23 0.0383032
12.24 0.02735
12.25 0.0156879
12.26 0.00360698
12.27 -0.00873399
12.28 -0.0211167
12.29 -0.0333759
12.3 -0.0453129
12.31 -0.0568369
12.32 -0.0677859
12.33 -0.0781034
12.34 -0.0877486
12.35 -0.0966216
12.36 -0.104805
12.37 -0.11222
12.38 -0.118942
12.39 -0.124997
12.4 -0.130362
12.41 -0.135133
12.42 -0.139241
12.43 -0.142739
12.44 -0.145594
12.45 -0.147723
12.46 -0.149143
12.47 -0.149665
12.48 -0.149284
12.49 -0.147868
12.5 -0.145255
12.51 -0.141463
12.52 -0.136203
12.53 -0.129568
12.54 -0.121433
12.55 -0.111738
12.56 -0.100635
12.57 -0.0879589
12.58 -0.0740229
12.59 -0.0588742
12.6 -0.0427155
12.61 -0.0258308
12.62 -0.00840712
12.63 0.00918827
12.64 0.0266682
12.65 0.0436873
12.66 0.0599898
12.67 0.0751223
12.68 0.0889741
12.69 0.101176
12.7 0.111565
12.71 0.120091
12.72 0.126423
12.73 0.130825
12.74 0.133124
12.75 0.133529
12.76 0.132239
12.77 0.129318
12.78 0.125212
12.79 0.120084
12.8 0.114331
12.81 0.108258
12.82 0.102207
12.83 0.0964649
12.84 0.0913729
12.85 0.0871375
12.86 0.0839511
