# xPDFsuite Configuration #
[PDF]
wavelength = 0.1
dataformat = QA
inputfile = B3_Bronze-3nm_ss_025.chi
backgroundfile = B3_Li-bkg_DD155_two_ss_att.chi
mode = xray
bgscale = 0.985
composition = Ti O2
outputtype = gr
qmaxinst = 23.5
qmin = 0.1
qmax = 23.0
rmax = 40.0
rmin = 0.0
rstep = 0.01
rpoly = 0.9

[Misc]
inputdir = E:/Beamtime/PETRA-III_September-2019/BeamData/processed/Run1/B3/integration_20210218/chi/chi_w_sigmas/chi_scaled
savedir = E:/Beamtime/PETRA-III_September-2019/BeamData/processed/Run1/B3/integration_20210218
backgroundfilefull = E:/Beamtime/PETRA-III_September-2019/BeamData/processed/Run1/B3/integration_20210218/chi/chi_w_sigmas/chi_scaled/B3_Li-bkg_DD155_two_ss_att.chi

#### start data
#S 1
#L r($\AA$)  G($\AA^{-2}$)
0 0
0.01 0.00493291
0.02 0.00960557
0.03 0.0137545
0.04 0.0171444
0.05 0.0196622
0.06 0.0210249
0.07 0.0213193
0.08 0.0204262
0.09 0.0184268
0.1 0.0154699
0.11 0.0116132
0.12 0.00717211
0.13 0.00232334
0.14 -0.00263997
0.15 -0.00747279
0.16 -0.0118655
0.17 -0.0156462
0.18 -0.0185329
0.19 -0.0204095
0.2 -0.0211926
0.21 -0.0207271
0.22 -0.0191718
0.23 -0.0164666
0.24 -0.0128347
0.25 -0.00844076
0.26 -0.00348015
0.27 0.00174959
0.28 0.00699364
0.29 0.0119654
0.3 0.0164095
0.31 0.0200209
0.32 0.0226875
0.33 0.0240808
0.34 0.0242077
0.35 0.0229487
0.36 0.0202316
0.37 0.0162245
0.38 0.0108208
0.39 0.00431921
0.4 -0.00318795
0.41 -0.0115073
0.42 -0.0203782
0.43 -0.0296357
0.44 -0.0390017
0.45 -0.0482723
0.46 -0.0572169
0.47 -0.0656849
0.48 -0.0733899
0.49 -0.0802785
0.5 -0.0861282
0.51 -0.0908043
0.52 -0.0942575
0.53 -0.0961656
0.54 -0.0966102
0.55 -0.0953052
0.56 -0.0921526
0.57 -0.087093
0.58 -0.0797129
0.59 -0.0701581
0.6 -0.0580293
0.61 -0.0433056
0.62 -0.0259495
0.63 -0.00560873
0.64 0.0173704
0.65 0.0432545
0.66 0.0717142
0.67 0.102524
0.68 0.135512
0.69 0.170023
0.7 0.205684
0.71 0.241733
0.72 0.277495
0.73 0.312044
0.74 0.344714
0.75 0.37428
0.76 0.400133
0.77 0.421372
0.78 0.436914
0.79 0.446714
0.8 0.449328
0.81 0.445201
0.82 0.43386
0.83 0.415146
0.84 0.38998
0.85 0.357899
0.86 0.320506
0.87 0.278323
0.88 0.232485
0.89 0.184381
0.9 0.135144
0.91 0.0862746
0.92 0.0390952
0.93 -0.00502502
0.94 -0.0452771
0.95 -0.0799535
0.96 -0.109113
0.97 -0.131757
0.98 -0.147835
0.99 -0.157796
1 -0.161316
1.01 -0.159962
1.02 -0.154225
1.03 -0.145599
1.04 -0.13547
1.05 -0.125423
1.06 -0.116963
1.07 -0.111877
1.08 -0.111519
1.09 -0.116973
1.1 -0.12996
1.11 -0.150257
1.12 -0.179141
1.13 -0.215936
1.14 -0.260197
1.15 -0.311478
1.16 -0.367774
1.17 -0.42795
1.18 -0.489583
1.19 -0.550594
1.2 -0.608228
1.21 -0.660536
1.22 -0.704055
1.23 -0.737296
1.24 -0.757919
1.25 -0.763455
1.26 -0.754137
1.27 -0.726748
1.28 -0.683138
1.29 -0.622704
1.3 -0.546056
1.31 -0.455957
1.32 -0.352545
1.33 -0.240141
1.34 -0.120922
1.35 0.00155811
1.36 0.123941
1.37 0.242068
1.38 0.353056
1.39 0.45298
1.4 0.538635
1.41 0.60851
1.42 0.657802
1.43 0.687796
1.44 0.695632
1.45 0.681687
1.46 0.647349
1.47 0.59133
1.48 0.518147
1.49 0.428279
1.5 0.325484
1.51 0.213027
1.52 0.0938077
1.53 -0.0279371
1.54 -0.148802
1.55 -0.265203
1.56 -0.374249
1.57 -0.472077
1.58 -0.557748
1.59 -0.627739
1.6 -0.681953
1.61 -0.719671
1.62 -0.739696
1.63 -0.744451
1.64 -0.733005
1.65 -0.708499
1.66 -0.672442
1.67 -0.626768
1.68 -0.574684
1.69 -0.518025
1.7 -0.459821
1.71 -0.402207
1.72 -0.347526
1.73 -0.297104
1.74 -0.253156
1.75 -0.215815
1.76 -0.185931
1.77 -0.163619
1.78 -0.147835
1.79 -0.138674
1.8 -0.134
1.81 -0.132734
1.82 -0.133026
1.83 -0.133166
1.84 -0.131054
1.85 -0.125334
1.86 -0.114173
1.87 -0.0963148
1.88 -0.0712952
1.89 -0.0375028
1.9 0.00399613
1.91 0.0536827
1.92 0.110456
1.93 0.172992
1.94 0.240219
1.95 0.309769
1.96 0.379768
1.97 0.447807
1.98 0.511806
1.99 0.568745
2 0.617397
2.01 0.654657
2.02 0.679495
2.03 0.690683
2.04 0.686008
2.05 0.666743
2.06 0.630854
2.07 0.580128
2.08 0.515114
2.09 0.436321
2.1 0.346699
2.11 0.24684
2.12 0.140049
2.13 0.0283668
2.14 -0.085597
2.15 -0.199272
2.16 -0.309784
2.17 -0.415017
2.18 -0.512549
2.19 -0.599912
2.2 -0.67642
2.21 -0.738662
2.22 -0.787361
2.23 -0.820821
2.24 -0.838439
2.25 -0.841437
2.26 -0.827621
2.27 -0.799992
2.28 -0.758136
2.29 -0.703372
2.3 -0.637719
2.31 -0.561273
2.32 -0.47713
2.33 -0.386253
2.34 -0.290772
2.35 -0.19258
2.36 -0.0934567
2.37 0.00470381
2.38 0.0999986
2.39 0.190727
2.4 0.275575
2.41 0.352198
2.42 0.420342
2.43 0.477801
2.44 0.52416
2.45 0.558855
2.46 0.580178
2.47 0.589389
2.48 0.58487
2.49 0.567841
2.5 0.538675
2.51 0.497295
2.52 0.445952
2.53 0.384615
2.54 0.315706
2.55 0.240626
2.56 0.161105
2.57 0.07942
2.58 -0.00246724
2.59 -0.0823751
2.6 -0.158254
2.61 -0.227716
2.62 -0.289665
2.63 -0.341045
2.64 -0.381686
2.65 -0.409875
2.66 -0.424487
2.67 -0.426305
2.68 -0.413163
2.69 -0.387446
2.7 -0.348882
2.71 -0.298647
2.72 -0.238893
2.73 -0.17007
2.74 -0.0953997
2.75 -0.0164108
2.76 0.0644231
2.77 0.144981
2.78 0.222702
2.79 0.29597
2.8 0.362478
2.81 0.420732
2.82 0.469919
2.83 0.507868
2.84 0.535505
2.85 0.551526
2.86 0.556755
2.87 0.552011
2.88 0.537339
2.89 0.515117
2.9 0.485949
2.91 0.451999
2.92 0.414882
2.93 0.376292
2.94 0.337968
2.95 0.301587
2.96 0.268403
2.97 0.239478
2.98 0.216016
2.99 0.197899
3 0.186064
3.01 0.179737
3.02 0.17863
3.03 0.182144
3.04 0.188905
3.05 0.198078
3.06 0.208041
3.07 0.217519
3.08 0.224962
3.09 0.229368
3.1 0.228913
3.11 0.223216
3.12 0.211201
3.13 0.192249
3.14 0.166754
3.15 0.133721
3.16 0.0946088
3.17 0.0495383
3.18 -0.000477359
3.19 -0.0541159
3.2 -0.110491
3.21 -0.167905
3.22 -0.225106
3.23 -0.280649
3.24 -0.333488
3.25 -0.38198
3.26 -0.425803
3.27 -0.463755
3.28 -0.495575
3.29 -0.521297
3.3 -0.540292
3.31 -0.553702
3.32 -0.561428
3.33 -0.564546
3.34 -0.563928
3.35 -0.560307
3.36 -0.55498
3.37 -0.54877
3.38 -0.5427
3.39 -0.537511
3.4 -0.533993
3.41 -0.532379
3.42 -0.533168
3.43 -0.536146
3.44 -0.541129
3.45 -0.547718
3.46 -0.555138
3.47 -0.562599
3.48 -0.569107
3.49 -0.573644
3.5 -0.574931
3.51 -0.572321
3.52 -0.564117
3.53 -0.550114
3.54 -0.529338
3.55 -0.501101
3.56 -0.465835
3.57 -0.422397
3.58 -0.372141
3.59 -0.315061
3.6 -0.251952
3.61 -0.184156
3.62 -0.112235
3.63 -0.0380726
3.64 0.0371737
3.65 0.111917
3.66 0.184889
3.67 0.254218
3.68 0.319128
3.69 0.378015
3.7 0.429975
3.71 0.474592
3.72 0.510255
3.73 0.537767
3.74 0.556074
3.75 0.565654
3.76 0.566978
3.77 0.559642
3.78 0.545247
3.79 0.523649
3.8 0.496092
3.81 0.463376
3.82 0.425977
3.83 0.385195
3.84 0.341414
3.85 0.295619
3.86 0.248401
3.87 0.200321
3.88 0.151943
3.89 0.103702
3.9 0.0559802
3.91 0.00909935
3.92 -0.0365621
3.93 -0.0808695
3.94 -0.123316
3.95 -0.16381
3.96 -0.201971
3.97 -0.237346
3.98 -0.26986
3.99 -0.298615
4 -0.323651
4.01 -0.344322
4.02 -0.36009
4.03 -0.37101
4.04 -0.375865
4.05 -0.375207
4.06 -0.368391
4.07 -0.355325
4.08 -0.336488
4.09 -0.311167
4.1 -0.280594
4.11 -0.24473
4.12 -0.20434
4.13 -0.160348
4.14 -0.113253
4.15 -0.0644044
4.16 -0.0146452
4.17 0.0348577
4.18 0.0831571
4.19 0.128944
4.2 0.171633
4.21 0.210012
4.22 0.243563
4.23 0.271891
4.24 0.294067
4.25 0.310666
4.26 0.321027
4.27 0.325803
4.28 0.325373
4.29 0.319942
4.3 0.310713
4.31 0.298021
4.32 0.283046
4.33 0.266576
4.34 0.249499
4.35 0.232645
4.36 0.216862
4.37 0.202698
4.38 0.190678
4.39 0.181288
4.4 0.174445
4.41 0.170558
4.42 0.169144
4.43 0.170055
4.44 0.172888
4.45 0.177001
4.46 0.18192
4.47 0.186896
4.48 0.191309
4.49 0.194468
4.5 0.19597
4.51 0.194974
4.52 0.191477
4.53 0.185021
4.54 0.175525
4.55 0.163229
4.56 0.147936
4.57 0.130387
4.58 0.110809
4.59 0.0898543
4.6 0.0681626
4.61 0.0464237
4.62 0.025325
4.63 0.00563738
4.64 -0.0119988
4.65 -0.0271113
4.66 -0.0388476
4.67 -0.0472513
4.68 -0.0516478
4.69 -0.0521169
4.7 -0.0486956
4.71 -0.0411446
4.72 -0.0301511
4.73 -0.0156091
4.74 0.00180523
4.75 0.0216869
4.76 0.0436721
4.77 0.0670729
4.78 0.0915677
4.79 0.116599
4.8 0.141813
4.81 0.166856
4.82 0.191516
4.83 0.21555
4.84 0.238933
4.85 0.261624
4.86 0.28365
4.87 0.305162
4.88 0.326229
4.89 0.347052
4.9 0.367754
4.91 0.388464
4.92 0.409253
4.93 0.43016
4.94 0.451122
4.95 0.472028
4.96 0.492654
4.97 0.512776
4.98 0.531903
4.99 0.549765
5 0.565792
5.01 0.579475
5.02 0.590496
5.03 0.597907
5.04 0.601745
5.05 0.601233
5.06 0.596146
5.07 0.586448
5.08 0.571403
5.09 0.551661
5.1 0.526776
5.11 0.497201
5.12 0.463327
5.13 0.425166
5.14 0.383703
5.15 0.339118
5.16 0.292253
5.17 0.243712
5.18 0.194086
5.19 0.144089
5.2 0.0943111
5.21 0.0453051
5.22 -0.00247257
5.23 -0.0484838
5.24 -0.0926181
5.25 -0.134356
5.26 -0.173775
5.27 -0.210741
5.28 -0.24514
5.29 -0.277284
5.3 -0.306954
5.31 -0.334573
5.32 -0.360192
5.33 -0.383929
5.34 -0.406087
5.35 -0.426557
5.36 -0.445642
5.37 -0.463296
5.38 -0.47951
5.39 -0.494371
5.4 -0.507564
5.41 -0.519216
5.42 -0.529067
5.43 -0.536964
5.44 -0.542911
5.45 -0.54645
5.46 -0.547808
5.47 -0.546701
5.48 -0.543153
5.49 -0.537312
5.5 -0.528969
5.51 -0.518597
5.52 -0.506188
5.53 -0.492102
5.54 -0.476677
5.55 -0.46016
5.56 -0.443046
5.57 -0.425667
5.58 -0.408447
5.59 -0.391723
5.6 -0.375934
5.61 -0.361252
5.62 -0.348078
5.63 -0.336501
5.64 -0.326637
5.65 -0.318681
5.66 -0.312412
5.67 -0.307982
5.68 -0.305098
5.69 -0.303628
5.7 -0.303422
5.71 -0.304138
5.72 -0.305646
5.73 -0.307619
5.74 -0.309865
5.75 -0.312172
5.76 -0.31438
5.77 -0.316325
5.78 -0.317945
5.79 -0.319172
5.8 -0.319976
5.81 -0.320408
5.82 -0.320444
5.83 -0.320187
5.84 -0.319662
5.85 -0.318914
5.86 -0.317978
5.87 -0.316817
5.88 -0.315418
5.89 -0.313673
5.9 -0.311444
5.91 -0.308601
5.92 -0.304805
5.93 -0.299939
5.94 -0.293621
5.95 -0.285583
5.96 -0.275646
5.97 -0.263268
5.98 -0.248547
5.99 -0.231047
6 -0.210784
6.01 -0.187813
6.02 -0.161925
6.03 -0.133639
6.04 -0.102953
6.05 -0.0704107
6.06 -0.0364637
6.07 -0.00161735
6.08 0.0334372
6.09 0.0680121
6.1 0.101409
6.11 0.132965
6.12 0.161779
6.13 0.187559
6.14 0.209277
6.15 0.226838
6.16 0.239815
6.17 0.247746
6.18 0.251085
6.19 0.249266
6.2 0.243117
6.21 0.232841
6.22 0.218915
6.23 0.202297
6.24 0.183452
6.25 0.163534
6.26 0.143353
6.27 0.123942
6.28 0.106063
6.29 0.0909864
6.3 0.0791255
6.31 0.0714181
6.32 0.0684809
6.33 0.0703481
6.34 0.0780746
6.35 0.0909116
6.36 0.109247
6.37 0.132679
6.38 0.160531
6.39 0.192728
6.4 0.227982
6.41 0.265773
6.42 0.305027
6.43 0.344809
6.44 0.384044
6.45 0.42186
6.46 0.457129
6.47 0.489053
6.48 0.516983
6.49 0.539753
6.5 0.557467
6.51 0.569077
6.52 0.57473
6.53 0.574346
6.54 0.567483
6.55 0.555035
6.56 0.536584
6.57 0.513071
6.58 0.484898
6.59 0.452435
6.6 0.416726
6.61 0.378049
6.62 0.337412
6.63 0.295394
6.64 0.252678
6.65 0.209905
6.66 0.167711
6.67 0.126558
6.68 0.0869294
6.69 0.0492916
6.7 0.0137488
6.71 -0.0190842
6.72 -0.049383
6.73 -0.0768589
6.74 -0.101421
6.75 -0.123298
6.76 -0.142068
6.77 -0.158245
6.78 -0.171683
6.79 -0.182529
6.8 -0.191063
6.81 -0.197098
6.82 -0.20112
6.83 -0.203075
6.84 -0.20318
6.85 -0.201663
6.86 -0.198491
6.87 -0.194034
6.88 -0.188318
6.89 -0.181572
6.9 -0.173984
6.91 -0.165661
6.92 -0.156864
6.93 -0.147729
6.94 -0.13847
6.95 -0.129259
6.96 -0.120308
6.97 -0.111753
6.98 -0.10382
6.99 -0.0966238
7 -0.0902943
7.01 -0.0850258
7.02 -0.0807882
7.03 -0.0777928
7.04 -0.0759649
7.05 -0.0753359
7.06 -0.0759431
7.07 -0.077609
7.08 -0.0803933
7.09 -0.0840601
7.1 -0.0885128
7.11 -0.0935999
7.12 -0.0990978
7.13 -0.104852
7.14 -0.110624
7.15 -0.116216
7.16 -0.121396
7.17 -0.126014
7.18 -0.129757
7.19 -0.132563
7.2 -0.134199
7.21 -0.134507
7.22 -0.13348
7.23 -0.130791
7.24 -0.12661
7.25 -0.12076
7.26 -0.113257
7.27 -0.104217
7.28 -0.0934792
7.29 -0.0813519
7.3 -0.0678009
7.31 -0.0530179
7.32 -0.0371997
7.33 -0.020431
7.34 -0.0030309
7.35 0.0148444
7.36 0.0329198
7.37 0.050965
7.38 0.0686884
7.39 0.0858874
7.4 0.102237
7.41 0.117538
7.42 0.131588
7.43 0.144044
7.44 0.154918
7.45 0.163838
7.46 0.170839
7.47 0.175826
7.48 0.178622
7.49 0.179465
7.5 0.178138
7.51 0.174948
7.52 0.169974
7.53 0.163332
7.54 0.15539
7.55 0.146232
7.56 0.136278
7.57 0.125773
7.58 0.115045
7.59 0.104394
7.6 0.0941805
7.61 0.0846408
7.62 0.0760745
7.63 0.0687515
7.64 0.0627423
7.65 0.058441
7.66 0.0557024
7.67 0.0547029
7.68 0.0554212
7.69 0.0576802
7.7 0.0615769
7.71 0.0667134
7.72 0.0729949
7.73 0.0801177
7.74 0.0877777
7.75 0.0956872
7.76 0.103496
7.77 0.110859
7.78 0.117445
7.79 0.122996
7.8 0.127062
7.81 0.129582
7.82 0.130149
7.83 0.128683
7.84 0.125101
7.85 0.119107
7.86 0.110961
7.87 0.100416
7.88 0.0877195
7.89 0.0729791
7.9 0.0562196
7.91 0.0378494
7.92 0.0178973
7.93 -0.00323444
7.94 -0.0253135
7.95 -0.0480764
7.96 -0.0711862
7.97 -0.0943781
7.98 -0.117357
7.99 -0.139863
8 -0.161602
8.01 -0.182439
8.02 -0.202013
8.03 -0.220296
8.04 -0.237082
8.05 -0.252214
8.06 -0.265764
8.07 -0.27742
8.08 -0.287417
8.09 -0.295642
8.1 -0.30213
8.11 -0.307075
8.12 -0.310323
8.13 -0.312224
8.14 -0.312776
8.15 -0.312145
8.16 -0.310534
8.17 -0.307976
8.18 -0.304745
8.19 -0.30092
8.2 -0.296667
8.21 -0.292115
8.22 -0.287349
8.23 -0.282477
8.24 -0.277546
8.25 -0.27259
8.26 -0.267608
8.27 -0.262558
8.28 -0.257384
8.29 -0.251968
8.3 -0.246189
8.31 -0.239905
8.32 -0.232869
8.33 -0.224983
8.34 -0.215919
8.35 -0.205548
8.36 -0.193674
8.37 -0.179977
8.38 -0.1645
8.39 -0.146854
8.4 -0.127145
8.41 -0.105279
8.42 -0.081159
8.43 -0.0550735
8.44 -0.0268785
8.45 0.0029953
8.46 0.0343776
8.47 0.0669664
8.48 0.100315
8.49 0.134075
8.5 0.16774
8.51 0.20085
8.52 0.232863
8.53 0.263442
8.54 0.291813
8.55 0.317856
8.56 0.341008
8.57 0.36092
8.58 0.377599
8.59 0.39033
8.6 0.399587
8.61 0.405042
8.62 0.406873
8.63 0.405445
8.64 0.40062
8.65 0.39319
8.66 0.383297
8.67 0.371523
8.68 0.358392
8.69 0.344337
8.7 0.329971
8.71 0.315771
8.72 0.302221
8.73 0.289686
8.74 0.278661
8.75 0.26922
8.76 0.261743
8.77 0.256183
8.78 0.252522
8.79 0.250784
8.8 0.250562
8.81 0.251747
8.82 0.253841
8.83 0.256462
8.84 0.259117
8.85 0.261349
8.86 0.262552
8.87 0.262332
8.88 0.260217
8.89 0.255679
8.9 0.248654
8.91 0.238487
8.92 0.225387
8.93 0.209156
8.94 0.189775
8.95 0.167675
8.96 0.142725
8.97 0.115667
8.98 0.0867891
8.99 0.0566559
9 0.0258906
9.01 -0.00488937
9.02 -0.0350431
9.03 -0.0638923
9.04 -0.0907735
9.05 -0.115297
9.06 -0.136513
9.07 -0.154448
9.08 -0.168433
9.09 -0.178304
9.1 -0.184134
9.11 -0.185372
9.12 -0.182707
9.13 -0.175918
9.14 -0.165501
9.15 -0.15193
9.16 -0.135394
9.17 -0.116773
9.18 -0.0964222
9.19 -0.0750884
9.2 -0.0533509
9.21 -0.0318617
9.22 -0.0111358
9.23 0.00816937
9.24 0.0256672
9.25 0.0409827
9.26 0.0536003
9.27 0.0636053
9.28 0.070497
9.29 0.0745158
9.3 0.0756446
9.31 0.0738733
9.32 0.0696877
9.33 0.0630333
9.34 0.054501
9.35 0.0443526
9.36 0.0329503
9.37 0.0207617
9.38 0.00808737
9.39 -0.00465679
9.4 -0.0171727
9.41 -0.0291562
9.42 -0.0404586
9.43 -0.0507876
9.44 -0.0601844
9.45 -0.0685497
9.46 -0.075919
9.47 -0.0824478
9.48 -0.088163
9.49 -0.0933602
9.5 -0.098198
9.51 -0.102931
9.52 -0.107775
9.53 -0.113006
9.54 -0.118773
9.55 -0.125303
9.56 -0.13271
9.57 -0.141032
9.58 -0.150405
9.59 -0.160656
9.6 -0.171782
9.61 -0.183566
9.62 -0.195793
9.63 -0.208204
9.64 -0.220481
9.65 -0.232255
9.66 -0.243185
9.67 -0.252942
9.68 -0.261034
9.69 -0.267346
9.7 -0.271339
9.71 -0.272957
9.72 -0.272012
9.73 -0.268221
9.74 -0.261862
9.75 -0.252636
9.76 -0.240961
9.77 -0.226969
9.78 -0.210874
9.79 -0.19321
9.8 -0.1742
9.81 -0.154459
9.82 -0.134412
9.83 -0.114601
9.84 -0.0954511
9.85 -0.0776067
9.86 -0.0613455
9.87 -0.047148
9.88 -0.0354026
9.89 -0.026136
9.9 -0.0199727
9.91 -0.0165632
9.92 -0.0161488
9.93 -0.0186266
9.94 -0.0236544
9.95 -0.0313501
9.96 -0.0410437
9.97 -0.0525766
9.98 -0.0654774
9.99 -0.0792926
10 -0.0936423
10.01 -0.108035
10.02 -0.122058
10.03 -0.135311
10.04 -0.147509
10.05 -0.158195
10.06 -0.167335
10.07 -0.174572
10.08 -0.179898
10.09 -0.183302
10.1 -0.184616
10.11 -0.184152
10.12 -0.181804
10.13 -0.177864
10.14 -0.172491
10.15 -0.165792
10.16 -0.158095
10.17 -0.149467
10.18 -0.140171
10.19 -0.130335
10.2 -0.120065
10.21 -0.109492
10.22 -0.0986339
10.23 -0.0875463
10.24 -0.0762158
10.25 -0.0645998
10.26 -0.0526819
10.27 -0.0403502
10.28 -0.0275917
10.29 -0.0143313
10.3 -0.00051487
10.31 0.0138228
10.32 0.0287502
10.33 0.0441382
10.34 0.0599357
10.35 0.0760046
10.36 0.0921766
10.37 0.108237
10.38 0.123975
10.39 0.139118
10.4 0.153391
10.41 0.166614
10.42 0.178348
10.43 0.188577
10.44 0.19696
10.45 0.203396
10.46 0.207888
10.47 0.21016
10.48 0.210534
10.49 0.208907
10.5 0.205551
10.51 0.200725
10.52 0.194599
10.53 0.187648
10.54 0.180152
10.55 0.172548
10.56 0.165194
10.57 0.158537
10.58 0.152821
10.59 0.148488
10.6 0.145687
10.61 0.144592
10.62 0.145433
10.63 0.148013
10.64 0.152492
10.65 0.158528
10.66 0.165932
10.67 0.174422
10.68 0.18354
10.69 0.192908
10.7 0.202028
10.71 0.210439
10.72 0.217593
10.73 0.2232
10.74 0.226558
10.75 0.227594
10.76 0.225896
10.77 0.22121
10.78 0.213701
10.79 0.202897
10.8 0.189359
10.81 0.173054
10.82 0.154304
10.83 0.133616
10.84 0.111195
10.85 0.0877729
10.86 0.0637765
10.87 0.0398124
10.88 0.016373
10.89 -0.00585932
10.9 -0.0265682
10.91 -0.0451548
10.92 -0.0612959
10.93 -0.0748177
10.94 -0.0851705
10.95 -0.0926427
10.96 -0.0968764
10.97 -0.0981031
10.98 -0.0965132
10.99 -0.0920695
11 -0.0853734
11.01 -0.0764846
11.02 -0.0659279
11.03 -0.0540557
11.04 -0.0411929
11.05 -0.0277984
11.06 -0.0141748
11.07 -0.000670659
11.08 0.0124558
11.09 0.0249242
11.1 0.0366391
11.11 0.0473548
11.12 0.0570913
11.13 0.0657856
11.14 0.0733983
11.15 0.0800674
11.16 0.0857143
11.17 0.0905281
11.18 0.0945346
11.19 0.0977866
11.2 0.100399
11.21 0.102306
11.22 0.103606
11.23 0.104236
11.24 0.104138
11.25 0.103305
11.26 0.101502
11.27 0.0987593
11.28 0.0948746
11.29 0.0897273
11.3 0.0833001
11.31 0.0752946
11.32 0.0658658
11.33 0.0548446
11.34 0.0422872
11.35 0.0283234
11.36 0.0129
11.37 -0.00363196
11.38 -0.021175
11.39 -0.039407
11.4 -0.0580329
11.41 -0.0767166
11.42 -0.095113
11.43 -0.112813
11.44 -0.129474
11.45 -0.144794
11.46 -0.158288
11.47 -0.169904
11.48 -0.179162
11.49 -0.186059
11.5 -0.190484
11.51 -0.192216
11.52 -0.191579
11.53 -0.188359
11.54 -0.182964
11.55 -0.17556
11.56 -0.16635
11.57 -0.155813
11.58 -0.14414
11.59 -0.131829
11.6 -0.119205
11.61 -0.106659
11.62 -0.0944955
11.63 -0.0831217
11.64 -0.0727122
11.65 -0.0635309
11.66 -0.05578
11.67 -0.0494285
11.68 -0.0447564
11.69 -0.041518
11.7 -0.0397559
11.71 -0.0393397
11.72 -0.0400225
11.73 -0.0417524
11.74 -0.0441604
11.75 -0.0470774
11.76 -0.0502325
11.77 -0.0533981
11.78 -0.0563174
11.79 -0.0588266
11.8 -0.0607098
11.81 -0.0618351
11.82 -0.0621381
11.83 -0.0614398
11.84 -0.0598391
11.85 -0.0572395
11.86 -0.0537289
11.87 -0.0493884
11.88 -0.044232
11.89 -0.0384579
11.9 -0.032111
11.91 -0.0253559
11.92 -0.0183059
11.93 -0.0110667
11.94 -0.00375881
11.95 0.00352763
11.96 0.0107124
11.97 0.0177358
11.98 0.024533
11.99 0.031097
12 0.0373714
12.01 0.0433721
12.02 0.049086
12.03 0.0544969
12.04 0.059633
12.05 0.0644472
12.06 0.0689646
12.07 0.073153
12.08 0.0769724
12.09 0.0804232
12.1 0.0833952
12.11 0.0858954
12.12 0.0878358
12.13 0.0891417
12.14 0.0898109
12.15 0.0896695
12.16 0.0887828
12.17 0.0870488
12.18 0.0844446
12.19 0.0810224
12.2 0.0766691
12.21 0.0715457
12.22 0.065629
12.23 0.0590154
12.24 0.0518232
12.25 0.0440994
12.26 0.0360325
12.27 0.0277181
12.28 0.0193125
12.29 0.0109441
12.3 0.00277067
12.31 -0.0051115
12.32 -0.0125514
12.33 -0.0194695
12.34 -0.0258014
12.35 -0.0314237
12.36 -0.0363845
12.37 -0.040584
12.38 -0.0440814
12.39 -0.0468982
12.4 -0.0490273
12.41 -0.0505942
12.42 -0.0515903
12.43 -0.0521358
12.44 -0.0522868
12.45 -0.0520948
12.46 -0.0516506
12.47 -0.0509737
12.48 -0.050128
12.49 -0.0491314
12.5 -0.0479912
12.51 -0.0467199
12.52 -0.0452821
12.53 -0.043673
12.54 -0.0418533
12.55 -0.0397796
12.56 -0.037443
12.57 -0.0347655
12.58 -0.0317702
12.59 -0.0284236
12.6 -0.0247293
12.61 -0.0207347
12.62 -0.0164392
12.63 -0.0119484
12.64 -0.00732547
12.65 -0.00268195
12.66 0.00187609
12.67 0.00618758
12.68 0.0101532
12.69 0.0136008
12.7 0.0164016
12.71 0.0184731
12.72 0.0196012
12.73 0.0198279
12.74 0.0189979
12.75 0.0171358
12.76 0.0142831
12.77 0.0103944
12.78 0.00568503
12.79 0.000193251
12.8 -0.00585497
12.81 -0.0122697
12.82 -0.0188252
12.83 -0.0252719
12.84 -0.03132
12.85 -0.0367244
12.86 -0.04124
12.87 -0.0445303
12.88 -0.0465234
12.89 -0.0468374
